0.000000000000000000e+00
0.000000000000000000e+00
0.000000000000000000e+00
0.000000000000000000e+00
0.000000000000000000e+00
0.000000000000000000e+00
0.000000000000000000e+00
0.000000000000000000e+00
0.000000000000000000e+00
0.000000000000000000e+00
0.000000000000000000e+00
0.000000000000000000e+00
0.000000000000000000e+00
0.000000000000000000e+00
0.000000000000000000e+00
0.000000000000000000e+00
0.000000000000000000e+00
0.000000000000000000e+00
0.000000000000000000e+00
0.000000000000000000e+00
0.000000000000000000e+00
0.000000000000000000e+00
0.000000000000000000e+00
0.000000000000000000e+00
0.000000000000000000e+00
0.000000000000000000e+00
0.000000000000000000e+00
0.000000000000000000e+00
0.000000000000000000e+00
0.000000000000000000e+00
0.000000000000000000e+00
0.000000000000000000e+00
0.000000000000000000e+00
0.000000000000000000e+00
0.000000000000000000e+00
0.000000000000000000e+00
0.000000000000000000e+00
0.000000000000000000e+00
0.000000000000000000e+00
0.000000000000000000e+00
0.000000000000000000e+00
0.000000000000000000e+00
0.000000000000000000e+00
0.000000000000000000e+00
0.000000000000000000e+00
0.000000000000000000e+00
0.000000000000000000e+00
0.000000000000000000e+00
0.000000000000000000e+00
0.000000000000000000e+00
0.000000000000000000e+00
0.000000000000000000e+00
0.000000000000000000e+00
0.000000000000000000e+00
0.000000000000000000e+00
0.000000000000000000e+00
0.000000000000000000e+00
0.000000000000000000e+00
0.000000000000000000e+00
0.000000000000000000e+00
0.000000000000000000e+00
0.000000000000000000e+00
0.000000000000000000e+00
0.000000000000000000e+00
0.000000000000000000e+00
0.000000000000000000e+00
0.000000000000000000e+00
0.000000000000000000e+00
0.000000000000000000e+00
0.000000000000000000e+00
0.000000000000000000e+00
0.000000000000000000e+00
0.000000000000000000e+00
0.000000000000000000e+00
0.000000000000000000e+00
0.000000000000000000e+00
0.000000000000000000e+00
0.000000000000000000e+00
0.000000000000000000e+00
1.517646476057420841e+02
1.532989336244924630e+02
1.465744892450657915e+02
1.430797919318310392e+02
1.409118631955853971e+02
1.389140952800987918e+02
1.373695644673997549e+02
1.363635389644527436e+02
1.356690450552989660e+02
1.351131239819536916e+02
1.344598085583607485e+02
1.337660801227341096e+02
1.334118436240546259e+02
1.312606520650325592e+02
1.286043534161680668e+02
1.279402864020343600e+02
1.283809015660581849e+02
1.275072633452828654e+02
1.267863339457422285e+02
1.262024040200758606e+02
1.259499694177329019e+02
1.260253642947785124e+02
1.263981341304080956e+02
1.269847256538552784e+02
1.285325638362331802e+02
1.299811436421339295e+02
1.308595637718947273e+02
1.326483577646571916e+02
1.348472381769477693e+02
1.368736875456049802e+02
1.383271989144491840e+02
1.396296615283231120e+02
1.409783989913652249e+02
1.423474949179411340e+02
1.436978840339869237e+02
1.448586937590117714e+02
1.457071875253750193e+02
1.460523485204937515e+02
1.457341477165655590e+02
1.449248126695246128e+02
1.436280101273108585e+02
1.420106154763213624e+02
1.400406681389571588e+02
1.375898962673184656e+02
1.350155523879770385e+02
1.334882679903590770e+02
1.326034566829857226e+02
1.323048407743923178e+02
1.325855637280014321e+02
1.333313304213668573e+02
1.342746425711415270e+02
1.353891529353530530e+02
1.367856714021658888e+02
1.384389795294908083e+02
1.402075086003653723e+02
1.415872782328427206e+02
1.428491021278607604e+02
1.441217590439936203e+02
1.457420699579688232e+02
1.477910206885780440e+02
1.497567649899797573e+02
1.521870617591407040e+02
1.552176931998051543e+02
1.580430324972974745e+02
1.605948591141968222e+02
1.622328808218795189e+02
1.632097557667750038e+02
1.637536413596322973e+02
1.642776395516381740e+02
1.647519283465550757e+02
1.651537011131864006e+02
1.653998250163010937e+02
1.653855503826765130e+02
1.653948563576333015e+02
1.655072791875018652e+02
1.656061165534045472e+02
1.657867338813526032e+02
1.662328773661213290e+02
1.668591458960648026e+02
1.675318647885456471e+02
1.683262856259800344e+02
1.691565732241711544e+02
1.698231680399028392e+02
1.706519692630852489e+02
1.718499810477145502e+02
1.728963064366853075e+02
1.736568657161608087e+02
1.745578891756998132e+02
1.754102158369584856e+02
1.759944229637838760e+02
1.763501861398583799e+02
1.764384189525075897e+02
1.761012024489605778e+02
1.754876018528745760e+02
1.747096938049493815e+02
1.738788448674195024e+02
1.730352793606103319e+02
1.720980418914193706e+02
1.710385222383827966e+02
1.698833453510393952e+02
1.687742735187293306e+02
1.676181632595893234e+02
1.662899586934669856e+02
1.648931608821793304e+02
1.635569103164343119e+02
1.621682991936202143e+02
1.603982517155436369e+02
1.582072535602254106e+02
1.561320005926195051e+02
1.542063504100173930e+02
1.521700091297690278e+02
1.499318207206762565e+02
1.475696219329136625e+02
1.458409952351662184e+02
1.445043637151287328e+02
1.434384258930325871e+02
1.423322235078134099e+02
1.413884539831910843e+02
1.404851693376194532e+02
1.398300797043809496e+02
1.393384756579013697e+02
1.387147254051063499e+02
1.381316353062045152e+02
1.376355669961624528e+02
1.371917082906086591e+02
1.368748623469303141e+02
1.367424996035308311e+02
1.368307489513262851e+02
1.370823728110366915e+02
1.372896741538535821e+02
1.373983232560498209e+02
1.374677884336306875e+02
1.374673951356957957e+02
1.373482776702300612e+02
1.370782548168380686e+02
1.366296782122027480e+02
1.359749947197215363e+02
1.349360016183872517e+02
1.305191232697646910e+02
1.243412974988722226e+02
1.242157835035070548e+02
1.276626416528203976e+02
1.266918757416153198e+02
1.267987281207191046e+02
1.340449817701708923e+02
1.393810048751819579e+02
1.367749750039106118e+02
1.371172826829111955e+02
1.378740750443020886e+02
1.382219675224635580e+02
1.383607104236903922e+02
1.381536364011549836e+02
1.371081294222795179e+02
1.339587207395221640e+02
1.280472758263720721e+02
1.233773133060404490e+02
1.218211906813513963e+02
1.220695410525219131e+02
1.248117069632112219e+02
1.298977455448958835e+02
1.381383538318255830e+02
1.450583860825069280e+02
0.000000000000000000e+00
0.000000000000000000e+00
0.000000000000000000e+00
0.000000000000000000e+00
0.000000000000000000e+00
0.000000000000000000e+00
0.000000000000000000e+00
1.260111830086578948e+02
1.235855147986585649e+02
1.218250246071249450e+02
1.208605488498963325e+02
1.202998953410510836e+02
1.198285477865603781e+02
1.193430550255457092e+02
1.188701849543922719e+02
1.183864863513458374e+02
1.166075527794633899e+02
1.116291276628383287e+02
1.120299139571816909e+02
1.151890383780171874e+02
1.148649350155929056e+02
1.187554032398959691e+02
1.216444384215309071e+02
1.260135865041556400e+02
1.386651921437987198e+02
1.466056644646163249e+02
0.000000000000000000e+00
0.000000000000000000e+00
0.000000000000000000e+00
0.000000000000000000e+00
0.000000000000000000e+00
0.000000000000000000e+00
1.183305565510378443e+02
1.162605525188994591e+02
1.152242515904405025e+02
1.145248133173435008e+02
1.137483953379284429e+02
1.129464844839244790e+02
1.123840596887497014e+02
1.118277948659217458e+02
1.112216075513218811e+02
1.106767960239867392e+02
1.100357044790138730e+02
1.092723158061760813e+02
1.085449633129138647e+02
1.077377043637759613e+02
1.069199801615152268e+02
1.059648152328915813e+02
1.059349069013375413e+02
1.061486942572326484e+02
1.059936200852312282e+02
1.055848708912057816e+02
1.053228394521105713e+02
1.052939658506047209e+02
1.050065160348988940e+02
1.044360599897867559e+02
1.043338726811070813e+02
1.046848528437877661e+02
1.048830634828285469e+02
1.046091053026952267e+02
1.039312267148509790e+02
1.033806605938157190e+02
1.029621511361363417e+02
1.016329832020476545e+02
9.855680716326186541e+01
9.444455307655827880e+01
0.000000000000000000e+00
0.000000000000000000e+00
0.000000000000000000e+00
0.000000000000000000e+00
0.000000000000000000e+00
0.000000000000000000e+00
0.000000000000000000e+00
0.000000000000000000e+00
0.000000000000000000e+00
0.000000000000000000e+00
0.000000000000000000e+00
0.000000000000000000e+00
0.000000000000000000e+00
0.000000000000000000e+00
0.000000000000000000e+00
0.000000000000000000e+00
0.000000000000000000e+00
0.000000000000000000e+00
0.000000000000000000e+00
0.000000000000000000e+00
0.000000000000000000e+00
0.000000000000000000e+00
0.000000000000000000e+00
0.000000000000000000e+00
0.000000000000000000e+00
0.000000000000000000e+00
0.000000000000000000e+00
0.000000000000000000e+00
0.000000000000000000e+00
0.000000000000000000e+00
0.000000000000000000e+00
0.000000000000000000e+00
0.000000000000000000e+00
0.000000000000000000e+00
0.000000000000000000e+00
0.000000000000000000e+00
0.000000000000000000e+00
0.000000000000000000e+00
0.000000000000000000e+00
0.000000000000000000e+00
0.000000000000000000e+00
0.000000000000000000e+00
0.000000000000000000e+00
0.000000000000000000e+00
0.000000000000000000e+00
0.000000000000000000e+00
0.000000000000000000e+00
0.000000000000000000e+00
0.000000000000000000e+00
0.000000000000000000e+00
0.000000000000000000e+00
0.000000000000000000e+00
0.000000000000000000e+00
0.000000000000000000e+00
0.000000000000000000e+00
0.000000000000000000e+00
0.000000000000000000e+00
0.000000000000000000e+00
0.000000000000000000e+00
0.000000000000000000e+00
0.000000000000000000e+00
0.000000000000000000e+00
0.000000000000000000e+00
0.000000000000000000e+00
0.000000000000000000e+00
0.000000000000000000e+00
0.000000000000000000e+00
0.000000000000000000e+00
0.000000000000000000e+00
0.000000000000000000e+00
0.000000000000000000e+00
0.000000000000000000e+00
0.000000000000000000e+00
0.000000000000000000e+00
0.000000000000000000e+00
0.000000000000000000e+00
0.000000000000000000e+00
0.000000000000000000e+00
0.000000000000000000e+00
0.000000000000000000e+00
0.000000000000000000e+00
0.000000000000000000e+00
0.000000000000000000e+00
0.000000000000000000e+00
0.000000000000000000e+00
0.000000000000000000e+00
0.000000000000000000e+00
0.000000000000000000e+00
0.000000000000000000e+00
0.000000000000000000e+00
0.000000000000000000e+00
0.000000000000000000e+00
0.000000000000000000e+00
0.000000000000000000e+00
0.000000000000000000e+00
0.000000000000000000e+00
0.000000000000000000e+00
0.000000000000000000e+00
0.000000000000000000e+00
0.000000000000000000e+00
0.000000000000000000e+00
0.000000000000000000e+00
0.000000000000000000e+00
0.000000000000000000e+00
0.000000000000000000e+00
0.000000000000000000e+00
0.000000000000000000e+00
0.000000000000000000e+00
0.000000000000000000e+00
0.000000000000000000e+00
0.000000000000000000e+00
0.000000000000000000e+00
0.000000000000000000e+00
0.000000000000000000e+00
0.000000000000000000e+00
0.000000000000000000e+00
0.000000000000000000e+00
0.000000000000000000e+00
0.000000000000000000e+00
0.000000000000000000e+00
0.000000000000000000e+00
0.000000000000000000e+00
0.000000000000000000e+00
0.000000000000000000e+00
0.000000000000000000e+00
1.534094254511495024e+02
1.445982428751361510e+02
1.381133915469712576e+02
1.394061297914061015e+02
1.447578808036839177e+02
1.429657639204968405e+02
1.427375040120259655e+02
1.416226600284581139e+02
1.401285737152294644e+02
1.389252901901766393e+02
1.382775402901855557e+02
1.375140743474056251e+02
1.370389113327012751e+02
1.366113722584456127e+02
1.324891224702169552e+02
1.363965097133555560e+02
1.415106704895897280e+02
0.000000000000000000e+00
0.000000000000000000e+00
0.000000000000000000e+00
1.493166017210029963e+02
1.433697036057043590e+02
1.387839958144715808e+02
1.390375541158844044e+02
1.400247094423129965e+02
1.415649328373564515e+02
1.434579887035602610e+02
1.452506655232515698e+02
1.473104079155203294e+02
1.493101938851378918e+02
1.508687931742684043e+02
1.523284907670689279e+02
1.537877176402813006e+02
1.549847993834274575e+02
1.561314794467130014e+02
1.574097667631638160e+02
1.585282704086374679e+02
1.594188192676492690e+02
1.602076143807659037e+02
1.607318382411435209e+02
1.603355472211204358e+02
1.597496832564948193e+02
1.594477082752497665e+02
1.593681241131152717e+02
1.592648835653911021e+02
1.592498474791417493e+02
1.593052905868516689e+02
1.592319275337053455e+02
1.590315286887957313e+02
1.586190826055025411e+02
1.580646625241933805e+02
1.575093262379676275e+02
1.568353414089583566e+02
1.559643558478819614e+02
1.549218472322994273e+02
1.538546106931020745e+02
1.528990947839169223e+02
1.519591499614952284e+02
1.508214641805400333e+02
1.493694412485077976e+02
1.475528052548613402e+02
1.460996439003996556e+02
1.473369621914142158e+02
1.500367377360647083e+02
1.504882086505872962e+02
1.496656740675167043e+02
1.487145436775411440e+02
1.477177477181770655e+02
1.466061538146319663e+02
1.455453228794511062e+02
1.443415639512826942e+02
1.429780352970655315e+02
1.415802569431001814e+02
1.404112334422939341e+02
1.393393394034943924e+02
1.382046344449798880e+02
1.372706252134363751e+02
1.365067952522043129e+02
1.357334289093374764e+02
1.349046061315584950e+02
1.342101187230431947e+02
1.337253917134735559e+02
1.331536866460581336e+02
1.323384708794949347e+02
1.314943203419890381e+02
1.306528131736362752e+02
1.297145322597528434e+02
1.287620509928229922e+02
1.278326549059001849e+02
1.267765403815130725e+02
1.252973383110924885e+02
1.232565338199801346e+02
1.217917431837765747e+02
1.218867325521313347e+02
1.217230019931925966e+02
1.207193782685629486e+02
1.194343121449481941e+02
1.182042897209517633e+02
1.173098095967666268e+02
1.167172530976297509e+02
1.161524999267134888e+02
1.155549889583611503e+02
1.148798887091707428e+02
1.142158124444469536e+02
1.137316365789698267e+02
1.132764091768960384e+02
1.128065966306068333e+02
1.123345544559123539e+02
1.119808317085005314e+02
1.118340339067637075e+02
1.118886003498031698e+02
1.120682226640356305e+02
1.121764874685744218e+02
1.120300207972842514e+02
1.117140600776738779e+02
1.115239968612949042e+02
1.116116167230608767e+02
1.118876400063644496e+02
1.121140286396381640e+02
1.121897002562750743e+02
1.121275014030579626e+02
1.120484522397890004e+02
1.119750116280013259e+02
1.118620338884005037e+02
1.116885469416930192e+02
1.114163617944993234e+02
1.111689566642759814e+02
1.110973639068824212e+02
1.111384273911448588e+02
1.112865408432109859e+02
1.116170985759907524e+02
1.120215273270601699e+02
1.123497680282924165e+02
1.126231593815535064e+02
1.129042684241878050e+02
1.130967378778433243e+02
1.130878399879124601e+02
1.127705628344022699e+02
1.123873286589264637e+02
1.129169746594324408e+02
1.148514619259973983e+02
1.170036154935518766e+02
1.186560644457903493e+02
1.195775721006014010e+02
1.203889563821262527e+02
1.217544067929931941e+02
1.240613466889300440e+02
1.257168615269822709e+02
1.257346069346926072e+02
1.254406921861619963e+02
1.262798166553102277e+02
1.272627772282703091e+02
1.281589379589084672e+02
1.292019229127503195e+02
1.302887410928567817e+02
1.312744851742388050e+02
1.321828220577538104e+02
1.330558804487879740e+02
1.336163338895453023e+02
1.330190234355223708e+02
1.295043416781817598e+02
1.261668438354789572e+02
1.275104249949374946e+02
1.266564192157724023e+02
1.239342241840575412e+02
1.203400564654475602e+02
1.269500346498773098e+02
1.376989799408699469e+02
1.372277584017302274e+02
1.357952532041280449e+02
1.343135767152050732e+02
1.327229524450849283e+02
1.307999865771408281e+02
1.290072643244909614e+02
1.275784802618447031e+02
1.262619340936630294e+02
1.249955646206762907e+02
1.238327971172996769e+02
1.228240762990461832e+02
1.218526208140475262e+02
1.210760494173517969e+02
1.204702131799168967e+02
1.196330074431884611e+02
1.185915812062866479e+02
1.176026165864519157e+02
1.168655568303243797e+02
1.160152795777893715e+02
1.131669748813008454e+02
1.071953898084858423e+02
1.068715059212645002e+02
0.000000000000000000e+00
0.000000000000000000e+00
0.000000000000000000e+00
0.000000000000000000e+00
0.000000000000000000e+00
0.000000000000000000e+00
0.000000000000000000e+00
0.000000000000000000e+00
0.000000000000000000e+00
0.000000000000000000e+00
0.000000000000000000e+00
0.000000000000000000e+00
0.000000000000000000e+00
0.000000000000000000e+00
0.000000000000000000e+00
0.000000000000000000e+00
0.000000000000000000e+00
0.000000000000000000e+00
0.000000000000000000e+00
0.000000000000000000e+00
0.000000000000000000e+00
0.000000000000000000e+00
0.000000000000000000e+00
0.000000000000000000e+00
0.000000000000000000e+00
0.000000000000000000e+00
0.000000000000000000e+00
0.000000000000000000e+00
0.000000000000000000e+00
0.000000000000000000e+00
0.000000000000000000e+00
0.000000000000000000e+00
0.000000000000000000e+00
9.957554223647343861e+01
9.825916475151750262e+01
9.730761347759899138e+01
9.499218004655941172e+01
9.201704198250581612e+01
8.909386640996403628e+01
8.771142295798900079e+01
8.908655958784183326e+01
0.000000000000000000e+00
0.000000000000000000e+00
0.000000000000000000e+00
0.000000000000000000e+00
0.000000000000000000e+00
0.000000000000000000e+00
0.000000000000000000e+00
0.000000000000000000e+00
0.000000000000000000e+00
0.000000000000000000e+00
0.000000000000000000e+00
0.000000000000000000e+00
0.000000000000000000e+00
0.000000000000000000e+00
0.000000000000000000e+00
0.000000000000000000e+00
0.000000000000000000e+00
0.000000000000000000e+00
0.000000000000000000e+00
0.000000000000000000e+00
0.000000000000000000e+00
0.000000000000000000e+00
0.000000000000000000e+00
0.000000000000000000e+00
0.000000000000000000e+00
0.000000000000000000e+00
0.000000000000000000e+00
0.000000000000000000e+00
0.000000000000000000e+00
0.000000000000000000e+00
0.000000000000000000e+00
0.000000000000000000e+00
0.000000000000000000e+00
0.000000000000000000e+00
0.000000000000000000e+00
0.000000000000000000e+00
0.000000000000000000e+00
0.000000000000000000e+00
0.000000000000000000e+00
0.000000000000000000e+00
0.000000000000000000e+00
0.000000000000000000e+00
0.000000000000000000e+00
0.000000000000000000e+00
0.000000000000000000e+00
0.000000000000000000e+00
0.000000000000000000e+00
0.000000000000000000e+00
0.000000000000000000e+00
0.000000000000000000e+00
0.000000000000000000e+00
0.000000000000000000e+00
0.000000000000000000e+00
0.000000000000000000e+00
0.000000000000000000e+00
0.000000000000000000e+00
0.000000000000000000e+00
0.000000000000000000e+00
0.000000000000000000e+00
0.000000000000000000e+00
0.000000000000000000e+00
0.000000000000000000e+00
0.000000000000000000e+00
0.000000000000000000e+00
0.000000000000000000e+00
0.000000000000000000e+00
0.000000000000000000e+00
0.000000000000000000e+00
0.000000000000000000e+00
0.000000000000000000e+00
0.000000000000000000e+00
0.000000000000000000e+00
0.000000000000000000e+00
0.000000000000000000e+00
0.000000000000000000e+00
0.000000000000000000e+00
0.000000000000000000e+00
0.000000000000000000e+00
0.000000000000000000e+00
0.000000000000000000e+00
0.000000000000000000e+00
0.000000000000000000e+00
