0.000000000000000000e+00
0.000000000000000000e+00
0.000000000000000000e+00
0.000000000000000000e+00
0.000000000000000000e+00
0.000000000000000000e+00
0.000000000000000000e+00
0.000000000000000000e+00
0.000000000000000000e+00
0.000000000000000000e+00
0.000000000000000000e+00
0.000000000000000000e+00
0.000000000000000000e+00
0.000000000000000000e+00
0.000000000000000000e+00
0.000000000000000000e+00
0.000000000000000000e+00
0.000000000000000000e+00
0.000000000000000000e+00
0.000000000000000000e+00
0.000000000000000000e+00
0.000000000000000000e+00
0.000000000000000000e+00
0.000000000000000000e+00
0.000000000000000000e+00
0.000000000000000000e+00
0.000000000000000000e+00
0.000000000000000000e+00
0.000000000000000000e+00
0.000000000000000000e+00
0.000000000000000000e+00
0.000000000000000000e+00
0.000000000000000000e+00
0.000000000000000000e+00
0.000000000000000000e+00
0.000000000000000000e+00
0.000000000000000000e+00
0.000000000000000000e+00
0.000000000000000000e+00
0.000000000000000000e+00
0.000000000000000000e+00
0.000000000000000000e+00
0.000000000000000000e+00
0.000000000000000000e+00
0.000000000000000000e+00
0.000000000000000000e+00
0.000000000000000000e+00
0.000000000000000000e+00
0.000000000000000000e+00
0.000000000000000000e+00
0.000000000000000000e+00
0.000000000000000000e+00
0.000000000000000000e+00
0.000000000000000000e+00
0.000000000000000000e+00
0.000000000000000000e+00
0.000000000000000000e+00
0.000000000000000000e+00
0.000000000000000000e+00
0.000000000000000000e+00
0.000000000000000000e+00
0.000000000000000000e+00
0.000000000000000000e+00
0.000000000000000000e+00
0.000000000000000000e+00
0.000000000000000000e+00
0.000000000000000000e+00
0.000000000000000000e+00
0.000000000000000000e+00
0.000000000000000000e+00
0.000000000000000000e+00
0.000000000000000000e+00
0.000000000000000000e+00
0.000000000000000000e+00
0.000000000000000000e+00
0.000000000000000000e+00
0.000000000000000000e+00
0.000000000000000000e+00
0.000000000000000000e+00
0.000000000000000000e+00
1.747807700458596116e+02
1.751025992833646967e+02
1.706161688108047940e+02
1.655918241160361504e+02
1.622587980449013116e+02
1.594262690897540438e+02
1.572645949190015813e+02
1.558020914786183369e+02
1.551124076228590241e+02
1.547566825695850525e+02
1.547318160783102314e+02
1.549383216742094476e+02
1.550087456468337450e+02
1.547915171332320767e+02
1.544220950137910506e+02
1.542728370502671282e+02
1.545955272224166492e+02
1.551224669659417827e+02
1.558500916494950275e+02
1.567259692273385667e+02
1.576578062259881108e+02
1.585068036859332210e+02
1.591168627351044051e+02
1.596878414665733885e+02
1.602375632135761236e+02
1.605509095888203319e+02
1.607838105368981587e+02
1.613358434381954112e+02
1.623527536601273766e+02
1.602731729362932640e+02
1.540087514054549445e+02
1.529069690474148615e+02
1.541667221224206799e+02
1.535957817957656175e+02
1.530522052225267942e+02
1.548004484428902003e+02
1.621591747615531460e+02
1.775128507830407329e+02
1.783579173753752229e+02
1.753700722189632586e+02
1.742984700244456633e+02
1.741707737001853218e+02
1.735148286596409832e+02
1.725746645738151983e+02
1.718616995045312024e+02
1.714302832103593062e+02
1.708169924782752673e+02
1.700490848312101093e+02
1.693729613444816380e+02
1.687118342638133583e+02
1.679235207764499478e+02
1.670822350212526999e+02
1.661400827746438438e+02
1.648917455989007124e+02
1.640655706046497642e+02
1.645890757762884675e+02
1.659957242498257983e+02
1.670730731053722877e+02
1.683783048818358736e+02
1.698672257842161173e+02
1.712448239738901066e+02
1.720764607437309053e+02
1.725087628599637242e+02
1.724660759349290231e+02
1.720657122084215587e+02
1.711078601836240978e+02
1.697261841034009251e+02
1.686165302273662121e+02
1.673957953235207583e+02
1.659058308712347127e+02
1.644681007245745548e+02
1.631142930639062456e+02
1.612410923725860812e+02
1.597144183166078903e+02
1.601507881113886071e+02
1.607555993002981154e+02
1.606490086017695376e+02
1.604578436992086665e+02
1.604264767379773957e+02
1.604567725311132733e+02
1.604879158358797611e+02
1.605132481401322764e+02
1.608573516701067661e+02
1.630741640596598643e+02
1.654470741644939835e+02
1.648948120613574986e+02
1.634428507177520657e+02
1.631352947339291575e+02
1.626574382276114363e+02
1.622587206738955956e+02
1.620266963927396375e+02
1.618213913052140640e+02
1.614450453615018546e+02
1.608512922660034974e+02
1.604911299853367552e+02
1.604358861824591997e+02
1.599889743185509019e+02
1.588113888210788787e+02
1.573586600010543179e+02
1.560201430229792550e+02
1.545036295828608672e+02
1.525622669751702745e+02
1.502071785739111931e+02
1.476135372738107492e+02
1.449882654381968905e+02
1.422826875459538769e+02
1.393002768812494594e+02
1.361710761873424360e+02
1.329760893301788940e+02
1.293180450600492009e+02
1.254586379046647266e+02
1.224789577171187744e+02
1.205821098949179913e+02
1.194121603701741208e+02
1.177486202713886456e+02
1.150209764206373109e+02
1.125412385536668438e+02
1.099611186906300873e+02
1.077032383662377271e+02
1.062284438358932874e+02
1.043245200500609826e+02
1.027325882157691836e+02
9.954131408992105889e+01
9.267724918567603254e+01
8.910363809699374826e+01
8.870721796144809446e+01
0.000000000000000000e+00
0.000000000000000000e+00
0.000000000000000000e+00
0.000000000000000000e+00
0.000000000000000000e+00
0.000000000000000000e+00
0.000000000000000000e+00
0.000000000000000000e+00
0.000000000000000000e+00
0.000000000000000000e+00
0.000000000000000000e+00
0.000000000000000000e+00
0.000000000000000000e+00
0.000000000000000000e+00
0.000000000000000000e+00
0.000000000000000000e+00
0.000000000000000000e+00
0.000000000000000000e+00
0.000000000000000000e+00
0.000000000000000000e+00
0.000000000000000000e+00
0.000000000000000000e+00
0.000000000000000000e+00
0.000000000000000000e+00
0.000000000000000000e+00
0.000000000000000000e+00
0.000000000000000000e+00
0.000000000000000000e+00
0.000000000000000000e+00
0.000000000000000000e+00
0.000000000000000000e+00
0.000000000000000000e+00
0.000000000000000000e+00
0.000000000000000000e+00
0.000000000000000000e+00
0.000000000000000000e+00
0.000000000000000000e+00
0.000000000000000000e+00
0.000000000000000000e+00
0.000000000000000000e+00
0.000000000000000000e+00
0.000000000000000000e+00
0.000000000000000000e+00
0.000000000000000000e+00
0.000000000000000000e+00
0.000000000000000000e+00
0.000000000000000000e+00
0.000000000000000000e+00
0.000000000000000000e+00
0.000000000000000000e+00
0.000000000000000000e+00
0.000000000000000000e+00
0.000000000000000000e+00
0.000000000000000000e+00
0.000000000000000000e+00
0.000000000000000000e+00
0.000000000000000000e+00
0.000000000000000000e+00
0.000000000000000000e+00
0.000000000000000000e+00
0.000000000000000000e+00
0.000000000000000000e+00
0.000000000000000000e+00
0.000000000000000000e+00
0.000000000000000000e+00
0.000000000000000000e+00
0.000000000000000000e+00
0.000000000000000000e+00
0.000000000000000000e+00
0.000000000000000000e+00
0.000000000000000000e+00
0.000000000000000000e+00
0.000000000000000000e+00
0.000000000000000000e+00
0.000000000000000000e+00
0.000000000000000000e+00
0.000000000000000000e+00
0.000000000000000000e+00
0.000000000000000000e+00
0.000000000000000000e+00
0.000000000000000000e+00
0.000000000000000000e+00
0.000000000000000000e+00
0.000000000000000000e+00
0.000000000000000000e+00
0.000000000000000000e+00
0.000000000000000000e+00
0.000000000000000000e+00
0.000000000000000000e+00
0.000000000000000000e+00
0.000000000000000000e+00
0.000000000000000000e+00
0.000000000000000000e+00
0.000000000000000000e+00
0.000000000000000000e+00
0.000000000000000000e+00
0.000000000000000000e+00
0.000000000000000000e+00
0.000000000000000000e+00
0.000000000000000000e+00
0.000000000000000000e+00
0.000000000000000000e+00
0.000000000000000000e+00
0.000000000000000000e+00
0.000000000000000000e+00
0.000000000000000000e+00
0.000000000000000000e+00
0.000000000000000000e+00
0.000000000000000000e+00
0.000000000000000000e+00
0.000000000000000000e+00
0.000000000000000000e+00
0.000000000000000000e+00
0.000000000000000000e+00
0.000000000000000000e+00
0.000000000000000000e+00
1.441033425612768042e+02
1.569791439083867317e+02
1.433467351410406536e+02
1.472639845585549097e+02
1.484771760357738515e+02
1.491055726630984282e+02
1.483561583475775194e+02
1.511372234390870801e+02
1.460243546425316481e+02
1.340419137591290735e+02
1.288951703730634790e+02
1.271909480993408295e+02
1.262619340936630294e+02
1.268604147129617985e+02
1.285525456366747790e+02
1.302686757743958879e+02
1.314222335239211930e+02
1.326565174805232346e+02
1.339181014478338625e+02
1.351602927467920949e+02
1.364278620775676814e+02
1.378295738901874188e+02
1.394736837610342945e+02
1.411743578079906456e+02
1.426901403400923982e+02
1.440725620540039245e+02
1.453823208912019993e+02
1.466478244636544161e+02
1.479607447766096300e+02
1.491534300208587638e+02
1.501066516207278028e+02
1.509501790846247502e+02
1.515693823679813761e+02
1.520166214237059421e+02
1.526090506979826102e+02
1.531249845567049022e+02
1.532688930322147769e+02
1.531174641260904252e+02
1.531046145363103506e+02
1.533955273309873348e+02
1.538323097765116358e+02
1.539452414166666756e+02
1.539648422830408663e+02
1.541490066467299300e+02
1.545018614392583913e+02
1.549889379793163755e+02
1.554262553898111037e+02
1.557881994516299926e+02
1.563105581630303220e+02
1.568118607024385085e+02
1.567649845865128100e+02
1.564491049674788599e+02
1.565479075413497867e+02
1.566141341970430858e+02
1.565101402809343369e+02
1.564569382419697092e+02
1.565699302087539593e+02
1.566243656143315945e+02
1.563919712304623317e+02
1.555676531861530805e+02
1.524023793762069943e+02
1.508658436693898466e+02
1.540645002485175894e+02
1.566224985175252584e+02
1.565740364724311746e+02
1.573462047742692960e+02
1.596569295496909717e+02
1.629013178844898562e+02
1.630800739131381079e+02
1.603452571663568165e+02
1.596016684766136962e+02
1.600835239300704700e+02
1.608884960062704295e+02
1.617777232502216975e+02
1.631700701096608270e+02
1.649994991115646883e+02
1.669341922237852884e+02
1.683208277469833263e+02
1.655210907673750569e+02
1.565126030853783732e+02
1.504439402488377766e+02
1.471095093463118531e+02
1.474021739437980045e+02
0.000000000000000000e+00
0.000000000000000000e+00
0.000000000000000000e+00
0.000000000000000000e+00
0.000000000000000000e+00
0.000000000000000000e+00
0.000000000000000000e+00
0.000000000000000000e+00
0.000000000000000000e+00
0.000000000000000000e+00
0.000000000000000000e+00
1.732080582639746353e+02
1.652375138852738985e+02
1.584639545222080415e+02
1.532445578912848418e+02
1.487933484710054870e+02
1.460783973950347558e+02
1.446521716846751815e+02
1.437967931265980042e+02
1.430642373037922823e+02
1.423527893892463680e+02
1.417224383690443688e+02
1.410249927405764936e+02
1.403094344031502203e+02
1.401343870462571601e+02
1.407386815036439600e+02
1.416560917924648209e+02
1.425473279370501416e+02
1.433506313178287712e+02
1.439134740199204430e+02
1.443709562522940075e+02
1.446696925304271417e+02
1.448444652122254297e+02
1.449635860609425890e+02
1.449037370137072003e+02
1.447660951231815147e+02
1.448600061711065052e+02
1.452235177820472813e+02
1.455145812982325708e+02
1.457703572632062787e+02
1.460568057524616847e+02
1.462538258135496392e+02
1.466001419133894501e+02
1.473072470110004701e+02
1.481888777973126423e+02
1.488976108233105435e+02
1.494284271092814436e+02
1.499314632557858147e+02
1.503637593653815543e+02
1.507206698518103849e+02
1.509786133308433307e+02
1.511419799916461670e+02
1.512483929202259390e+02
1.513841852886296806e+02
1.518088702987389809e+02
1.524960812402973716e+02
1.532279712861996188e+02
1.541762790334451267e+02
1.555278975522533642e+02
1.577330764657181135e+02
1.610566721325673711e+02
1.647794265855855826e+02
1.675371373091203679e+02
1.635945058225981086e+02
0.000000000000000000e+00
0.000000000000000000e+00
0.000000000000000000e+00
0.000000000000000000e+00
0.000000000000000000e+00
0.000000000000000000e+00
0.000000000000000000e+00
0.000000000000000000e+00
0.000000000000000000e+00
0.000000000000000000e+00
0.000000000000000000e+00
0.000000000000000000e+00
0.000000000000000000e+00
0.000000000000000000e+00
0.000000000000000000e+00
0.000000000000000000e+00
0.000000000000000000e+00
1.717870592270783732e+02
1.641871890579556350e+02
1.605993772559301362e+02
1.589886892994532843e+02
1.583112427971256295e+02
1.577611334067438804e+02
1.573612111932474420e+02
1.570639758247197619e+02
1.568955548241916631e+02
1.567167773667056849e+02
1.565922546499757004e+02
1.567659563573315893e+02
1.569008666818740778e+02
1.565128269786131341e+02
1.561458488210628559e+02
1.561092206955150914e+02
1.562330613107298518e+02
1.563133159706052311e+02
1.561627512802441231e+02
1.558334459527700062e+02
1.554576083565771967e+02
1.550186504298585533e+02
1.545138704792033764e+02
1.539964878988191117e+02
1.534437372541826221e+02
1.529160832846113465e+02
1.527237787950958818e+02
1.528077683831235447e+02
1.529683730454518411e+02
1.532278982214266421e+02
1.536153381676736842e+02
1.540593578768471446e+02
1.546396899473467954e+02
1.554501957368902367e+02
1.562019243631983159e+02
1.570555130375128954e+02
1.587839779508877882e+02
1.597886894053076503e+02
1.585268341639144012e+02
1.497389136564634100e+02
1.429261618297093150e+02
1.420429873839320862e+02
1.410991172585096365e+02
1.397027861803697419e+02
1.393411997968034086e+02
1.404295798432059144e+02
1.423690813053526369e+02
1.439050336025287891e+02
1.453080941714015921e+02
1.459976888495069431e+02
1.450089385138334421e+02
1.422107893051392011e+02
1.389286024666907338e+02
1.360188322254013542e+02
1.335431474356392698e+02
1.311120850598578045e+02
1.280023452445225018e+02
1.236681035443516663e+02
1.194942963090469874e+02
1.173299488887319484e+02
1.178100610232970382e+02
1.211879887695288573e+02
1.256194862426226706e+02
1.308803441896155277e+02
1.351148635210196289e+02
1.404383521446600867e+02
1.367775838044057366e+02
0.000000000000000000e+00
0.000000000000000000e+00
0.000000000000000000e+00
0.000000000000000000e+00
0.000000000000000000e+00
0.000000000000000000e+00
0.000000000000000000e+00
1.119413785568754349e+02
1.103722302332430019e+02
1.089442864975740548e+02
1.077632399398375895e+02
1.075885168230912541e+02
1.079133387003019493e+02
1.076010352887666244e+02
1.068815455729238408e+02
1.060693080157882946e+02
1.047939796995669752e+02
1.033589727432606225e+02
1.022999204738368348e+02
1.019820257321594426e+02
1.023514455511693484e+02
1.026232590961528786e+02
1.027127994888729035e+02
1.025385393870485018e+02
1.018122580989606831e+02
1.010309321925020072e+02
1.003145161221301294e+02
1.000629399061451608e+02
9.972189214042556671e+01
9.872750165227309083e+01
9.618293428704215842e+01
9.281496515698677285e+01
0.000000000000000000e+00
0.000000000000000000e+00
0.000000000000000000e+00
0.000000000000000000e+00
0.000000000000000000e+00
0.000000000000000000e+00
0.000000000000000000e+00
0.000000000000000000e+00
0.000000000000000000e+00
0.000000000000000000e+00
0.000000000000000000e+00
0.000000000000000000e+00
0.000000000000000000e+00
0.000000000000000000e+00
0.000000000000000000e+00
0.000000000000000000e+00
0.000000000000000000e+00
0.000000000000000000e+00
0.000000000000000000e+00
0.000000000000000000e+00
0.000000000000000000e+00
0.000000000000000000e+00
0.000000000000000000e+00
0.000000000000000000e+00
0.000000000000000000e+00
0.000000000000000000e+00
0.000000000000000000e+00
0.000000000000000000e+00
0.000000000000000000e+00
0.000000000000000000e+00
0.000000000000000000e+00
0.000000000000000000e+00
0.000000000000000000e+00
0.000000000000000000e+00
0.000000000000000000e+00
0.000000000000000000e+00
0.000000000000000000e+00
0.000000000000000000e+00
0.000000000000000000e+00
0.000000000000000000e+00
0.000000000000000000e+00
0.000000000000000000e+00
0.000000000000000000e+00
0.000000000000000000e+00
0.000000000000000000e+00
0.000000000000000000e+00
0.000000000000000000e+00
0.000000000000000000e+00
0.000000000000000000e+00
0.000000000000000000e+00
0.000000000000000000e+00
0.000000000000000000e+00
0.000000000000000000e+00
0.000000000000000000e+00
0.000000000000000000e+00
0.000000000000000000e+00
0.000000000000000000e+00
0.000000000000000000e+00
0.000000000000000000e+00
0.000000000000000000e+00
0.000000000000000000e+00
0.000000000000000000e+00
0.000000000000000000e+00
0.000000000000000000e+00
0.000000000000000000e+00
0.000000000000000000e+00
0.000000000000000000e+00
0.000000000000000000e+00
0.000000000000000000e+00
0.000000000000000000e+00
0.000000000000000000e+00
0.000000000000000000e+00
0.000000000000000000e+00
0.000000000000000000e+00
0.000000000000000000e+00
0.000000000000000000e+00
0.000000000000000000e+00
0.000000000000000000e+00
0.000000000000000000e+00
0.000000000000000000e+00
0.000000000000000000e+00
0.000000000000000000e+00
0.000000000000000000e+00
0.000000000000000000e+00
0.000000000000000000e+00
0.000000000000000000e+00
0.000000000000000000e+00
0.000000000000000000e+00
0.000000000000000000e+00
0.000000000000000000e+00
0.000000000000000000e+00
0.000000000000000000e+00
0.000000000000000000e+00
0.000000000000000000e+00
0.000000000000000000e+00
0.000000000000000000e+00
0.000000000000000000e+00
0.000000000000000000e+00
0.000000000000000000e+00
0.000000000000000000e+00
0.000000000000000000e+00
0.000000000000000000e+00
0.000000000000000000e+00
0.000000000000000000e+00
0.000000000000000000e+00
0.000000000000000000e+00
0.000000000000000000e+00
0.000000000000000000e+00
0.000000000000000000e+00
0.000000000000000000e+00
0.000000000000000000e+00
0.000000000000000000e+00
0.000000000000000000e+00
0.000000000000000000e+00
