0.000000000000000000e+00
0.000000000000000000e+00
0.000000000000000000e+00
0.000000000000000000e+00
0.000000000000000000e+00
0.000000000000000000e+00
0.000000000000000000e+00
0.000000000000000000e+00
0.000000000000000000e+00
0.000000000000000000e+00
0.000000000000000000e+00
0.000000000000000000e+00
0.000000000000000000e+00
0.000000000000000000e+00
0.000000000000000000e+00
0.000000000000000000e+00
0.000000000000000000e+00
0.000000000000000000e+00
0.000000000000000000e+00
0.000000000000000000e+00
0.000000000000000000e+00
0.000000000000000000e+00
0.000000000000000000e+00
0.000000000000000000e+00
0.000000000000000000e+00
0.000000000000000000e+00
0.000000000000000000e+00
0.000000000000000000e+00
0.000000000000000000e+00
0.000000000000000000e+00
0.000000000000000000e+00
0.000000000000000000e+00
0.000000000000000000e+00
0.000000000000000000e+00
0.000000000000000000e+00
0.000000000000000000e+00
0.000000000000000000e+00
0.000000000000000000e+00
0.000000000000000000e+00
0.000000000000000000e+00
0.000000000000000000e+00
0.000000000000000000e+00
0.000000000000000000e+00
0.000000000000000000e+00
0.000000000000000000e+00
0.000000000000000000e+00
0.000000000000000000e+00
0.000000000000000000e+00
0.000000000000000000e+00
0.000000000000000000e+00
0.000000000000000000e+00
0.000000000000000000e+00
0.000000000000000000e+00
0.000000000000000000e+00
0.000000000000000000e+00
0.000000000000000000e+00
0.000000000000000000e+00
0.000000000000000000e+00
0.000000000000000000e+00
0.000000000000000000e+00
0.000000000000000000e+00
0.000000000000000000e+00
0.000000000000000000e+00
0.000000000000000000e+00
0.000000000000000000e+00
0.000000000000000000e+00
0.000000000000000000e+00
0.000000000000000000e+00
0.000000000000000000e+00
0.000000000000000000e+00
0.000000000000000000e+00
0.000000000000000000e+00
0.000000000000000000e+00
0.000000000000000000e+00
0.000000000000000000e+00
0.000000000000000000e+00
0.000000000000000000e+00
0.000000000000000000e+00
0.000000000000000000e+00
0.000000000000000000e+00
1.552452286876093979e+02
1.479208170644110396e+02
1.536744618901283843e+02
1.563623683517860457e+02
1.568111129670009518e+02
1.571344668357630496e+02
1.569633506167490964e+02
1.559359492478317009e+02
1.521293082373146603e+02
1.459415882296116536e+02
1.449923445073310404e+02
1.513541590552345610e+02
1.546596742230629786e+02
1.528644674198951634e+02
1.493937309140835339e+02
1.476518331056306863e+02
0.000000000000000000e+00
0.000000000000000000e+00
0.000000000000000000e+00
0.000000000000000000e+00
0.000000000000000000e+00
0.000000000000000000e+00
0.000000000000000000e+00
0.000000000000000000e+00
0.000000000000000000e+00
1.721234011466632410e+02
1.700437332577447478e+02
1.698858565770400730e+02
1.698976031270368026e+02
1.695021511405986416e+02
1.676479785210855198e+02
1.631612005177470337e+02
1.501774574035993055e+02
1.449533560663077196e+02
1.479061466903965254e+02
1.509603284160851331e+02
1.546505298059467179e+02
1.542448120849815325e+02
1.484936024131966406e+02
1.472852630404835566e+02
1.559822799514149665e+02
0.000000000000000000e+00
0.000000000000000000e+00
0.000000000000000000e+00
0.000000000000000000e+00
1.569438170372441448e+02
1.504481010675088157e+02
1.464563492339887318e+02
1.438456901756957791e+02
1.421187990159542949e+02
1.408003685875781343e+02
1.398798956808584819e+02
1.391574730769352186e+02
1.381052254463506870e+02
1.367423691957831977e+02
1.357675420806666864e+02
1.358578182595923352e+02
1.361510787757151775e+02
1.340166053472326553e+02
1.305392894106882693e+02
1.274965629589009666e+02
1.236899242016117597e+02
1.210502452664571820e+02
1.194107938142686862e+02
1.187874017989024509e+02
1.191982571982235157e+02
1.209104097746755997e+02
1.220051225825277754e+02
1.212992796914583664e+02
0.000000000000000000e+00
0.000000000000000000e+00
0.000000000000000000e+00
0.000000000000000000e+00
1.403853918492533239e+02
1.371531170378343631e+02
1.344317289310871217e+02
1.338317944355866302e+02
1.344435883322324514e+02
1.350880642194975110e+02
1.357630104256713253e+02
1.364321557008176740e+02
1.370511314383408035e+02
1.375334849760640736e+02
1.377936285007132540e+02
1.380057563388589301e+02
1.382452354883602652e+02
1.384263056425441505e+02
1.386252609817918255e+02
1.389048220732890400e+02
1.391899910481649556e+02
1.395284291337983120e+02
1.398246123646872263e+02
1.399943996042538856e+02
1.409213375878315162e+02
1.427477137590179552e+02
1.442503276375825010e+02
1.452107767146012520e+02
1.457831474293051031e+02
1.461878673524929297e+02
1.462671466185499298e+02
1.459431888169491458e+02
1.451840518030327587e+02
1.440123254944464861e+02
1.413643873528006338e+02
1.379938459174928482e+02
1.373915096958927222e+02
1.496280688291561489e+02
1.488655933051372244e+02
0.000000000000000000e+00
0.000000000000000000e+00
0.000000000000000000e+00
0.000000000000000000e+00
1.643672777314288282e+02
1.629504174002000525e+02
1.495736400368353145e+02
1.448144240858805460e+02
1.442023244529538886e+02
1.441474635921094034e+02
1.444355439628380111e+02
1.452823212102050547e+02
1.464935764615705125e+02
1.475295183760563873e+02
1.479696347444823630e+02
1.476821107382028515e+02
1.452912580902494994e+02
1.348501317158149391e+02
1.318339098441990132e+02
1.357504520580174017e+02
1.392870592222903099e+02
1.458472541859823366e+02
1.518441998069345971e+02
0.000000000000000000e+00
0.000000000000000000e+00
0.000000000000000000e+00
0.000000000000000000e+00
0.000000000000000000e+00
0.000000000000000000e+00
0.000000000000000000e+00
0.000000000000000000e+00
0.000000000000000000e+00
0.000000000000000000e+00
0.000000000000000000e+00
0.000000000000000000e+00
0.000000000000000000e+00
1.658356750810504252e+02
1.611254208376759607e+02
1.567078849414535568e+02
1.544959677733882017e+02
1.535354437452595278e+02
1.528300665230092932e+02
1.520920993031768376e+02
1.512246670204064856e+02
1.501483864797378374e+02
1.488344343067326463e+02
1.473660509382097246e+02
1.458448896618823767e+02
1.443333048970385732e+02
1.428609547617829207e+02
1.413835998791785755e+02
1.397282356113192634e+02
1.378971529377489276e+02
1.362551233835066569e+02
1.346564660335467352e+02
1.331183894254874076e+02
1.314036227414933080e+02
1.295543090734537941e+02
1.278333863723116224e+02
1.263147461324017939e+02
1.249776851406003289e+02
1.237475610392630188e+02
1.224043420365672574e+02
1.209871146813164415e+02
1.193451037024451438e+02
1.156769364785328662e+02
1.119567524214356524e+02
1.117303084307438894e+02
1.102233889695654199e+02
1.080545778452541157e+02
1.069073879984592281e+02
1.075941602133816559e+02
1.085467231084218014e+02
1.099104795476059451e+02
1.100265752321476924e+02
1.090945216869958330e+02
1.081534984932431627e+02
1.077326185230830049e+02
1.076206367955980028e+02
1.075655871822911820e+02
1.074751986737002909e+02
1.073157303018474522e+02
1.072242735300886380e+02
1.075212806534412096e+02
1.084772328752567176e+02
1.101369114429343199e+02
1.116315229897576415e+02
1.122010955293552428e+02
1.126191854365283547e+02
1.128243488516798720e+02
1.117947390907458640e+02
1.107534515803502302e+02
1.111680555066090932e+02
1.123449466027797001e+02
1.127767469213486180e+02
0.000000000000000000e+00
0.000000000000000000e+00
0.000000000000000000e+00
0.000000000000000000e+00
0.000000000000000000e+00
0.000000000000000000e+00
0.000000000000000000e+00
0.000000000000000000e+00
0.000000000000000000e+00
0.000000000000000000e+00
0.000000000000000000e+00
0.000000000000000000e+00
0.000000000000000000e+00
0.000000000000000000e+00
0.000000000000000000e+00
0.000000000000000000e+00
0.000000000000000000e+00
0.000000000000000000e+00
0.000000000000000000e+00
0.000000000000000000e+00
0.000000000000000000e+00
0.000000000000000000e+00
0.000000000000000000e+00
0.000000000000000000e+00
0.000000000000000000e+00
0.000000000000000000e+00
0.000000000000000000e+00
0.000000000000000000e+00
0.000000000000000000e+00
0.000000000000000000e+00
0.000000000000000000e+00
0.000000000000000000e+00
0.000000000000000000e+00
0.000000000000000000e+00
0.000000000000000000e+00
0.000000000000000000e+00
0.000000000000000000e+00
0.000000000000000000e+00
0.000000000000000000e+00
0.000000000000000000e+00
0.000000000000000000e+00
0.000000000000000000e+00
0.000000000000000000e+00
0.000000000000000000e+00
0.000000000000000000e+00
0.000000000000000000e+00
0.000000000000000000e+00
0.000000000000000000e+00
0.000000000000000000e+00
0.000000000000000000e+00
0.000000000000000000e+00
0.000000000000000000e+00
0.000000000000000000e+00
0.000000000000000000e+00
0.000000000000000000e+00
0.000000000000000000e+00
0.000000000000000000e+00
0.000000000000000000e+00
1.721073152310117109e+02
1.628881132614428680e+02
1.548110042914228472e+02
0.000000000000000000e+00
0.000000000000000000e+00
0.000000000000000000e+00
0.000000000000000000e+00
0.000000000000000000e+00
0.000000000000000000e+00
0.000000000000000000e+00
0.000000000000000000e+00
0.000000000000000000e+00
0.000000000000000000e+00
0.000000000000000000e+00
0.000000000000000000e+00
0.000000000000000000e+00
0.000000000000000000e+00
0.000000000000000000e+00
0.000000000000000000e+00
0.000000000000000000e+00
