0.000000000000000000e+00
0.000000000000000000e+00
0.000000000000000000e+00
0.000000000000000000e+00
0.000000000000000000e+00
0.000000000000000000e+00
0.000000000000000000e+00
0.000000000000000000e+00
0.000000000000000000e+00
0.000000000000000000e+00
0.000000000000000000e+00
0.000000000000000000e+00
0.000000000000000000e+00
0.000000000000000000e+00
0.000000000000000000e+00
0.000000000000000000e+00
0.000000000000000000e+00
0.000000000000000000e+00
0.000000000000000000e+00
0.000000000000000000e+00
0.000000000000000000e+00
0.000000000000000000e+00
0.000000000000000000e+00
0.000000000000000000e+00
0.000000000000000000e+00
0.000000000000000000e+00
0.000000000000000000e+00
0.000000000000000000e+00
0.000000000000000000e+00
0.000000000000000000e+00
0.000000000000000000e+00
0.000000000000000000e+00
0.000000000000000000e+00
0.000000000000000000e+00
0.000000000000000000e+00
0.000000000000000000e+00
0.000000000000000000e+00
0.000000000000000000e+00
0.000000000000000000e+00
0.000000000000000000e+00
0.000000000000000000e+00
0.000000000000000000e+00
0.000000000000000000e+00
0.000000000000000000e+00
0.000000000000000000e+00
0.000000000000000000e+00
0.000000000000000000e+00
0.000000000000000000e+00
0.000000000000000000e+00
0.000000000000000000e+00
0.000000000000000000e+00
0.000000000000000000e+00
0.000000000000000000e+00
0.000000000000000000e+00
0.000000000000000000e+00
0.000000000000000000e+00
0.000000000000000000e+00
0.000000000000000000e+00
0.000000000000000000e+00
0.000000000000000000e+00
0.000000000000000000e+00
0.000000000000000000e+00
0.000000000000000000e+00
0.000000000000000000e+00
0.000000000000000000e+00
0.000000000000000000e+00
0.000000000000000000e+00
0.000000000000000000e+00
0.000000000000000000e+00
0.000000000000000000e+00
0.000000000000000000e+00
0.000000000000000000e+00
0.000000000000000000e+00
0.000000000000000000e+00
0.000000000000000000e+00
0.000000000000000000e+00
0.000000000000000000e+00
1.685384773474351050e+02
1.624092770499495089e+02
1.632636191904611849e+02
1.685555156752386949e+02
1.580662453253124227e+02
1.470949194355337113e+02
1.433860435332565828e+02
1.416047654581899451e+02
1.403744139592079136e+02
1.398174784746036039e+02
1.395589042729852167e+02
1.398992399985850454e+02
1.397991453801379009e+02
1.385539556190630606e+02
1.369892579441125804e+02
1.353618474103463143e+02
1.341888736093680166e+02
1.333005625429245811e+02
1.329118092198490046e+02
1.331754028946707820e+02
1.341686554804408047e+02
1.358760232369488392e+02
1.383529915022395755e+02
1.409617284897673812e+02
1.427589453241892841e+02
1.448308596083045643e+02
1.477092250494112875e+02
1.507462574644075914e+02
1.541618703789363281e+02
1.576017340827694966e+02
1.600461247508168867e+02
1.615388378855384417e+02
1.626427798382403296e+02
1.632971760576449753e+02
1.633284033737749041e+02
1.627803414359816543e+02
1.615644131130630683e+02
1.602382508800702396e+02
1.600353645651039471e+02
1.598763355963181141e+02
1.593324115726925072e+02
1.587667160742650196e+02
1.584544340589919216e+02
1.580992616473411942e+02
1.578356250947842057e+02
1.576926170659727973e+02
1.584687149683217058e+02
1.589009235670823728e+02
1.566963031273722322e+02
1.557722288657998888e+02
1.544416093078279744e+02
1.532976909528554472e+02
1.522544201791857574e+02
1.511128664706440929e+02
1.497375570421256725e+02
1.481917043028028615e+02
1.467073445283389503e+02
1.452996412448348167e+02
1.433292378282590676e+02
1.394195581907135590e+02
1.346348934683251741e+02
1.321091608924999434e+02
1.307903819045352805e+02
1.264777776346453777e+02
1.241054265277071238e+02
1.273501916504914817e+02
1.378735490974481763e+02
1.414475930464612077e+02
1.404024628347746955e+02
1.396034977997772444e+02
1.384554177048902091e+02
0.000000000000000000e+00
0.000000000000000000e+00
0.000000000000000000e+00
0.000000000000000000e+00
0.000000000000000000e+00
0.000000000000000000e+00
0.000000000000000000e+00
1.243596789281992443e+02
1.242119927964715203e+02
1.235861630321810054e+02
1.226894458468101732e+02
1.219110291849144403e+02
1.213320794073995614e+02
1.209369337885746916e+02
1.207182845672971752e+02
1.205750953392181088e+02
1.202076329313621983e+02
1.196485818683588320e+02
1.190662952568001884e+02
1.185560172990587375e+02
1.182329825794117255e+02
1.182435257129140638e+02
1.183648675635094349e+02
1.182351249582393535e+02
1.182501790830938546e+02
1.184659961538876729e+02
1.186359803804216710e+02
1.187479287125828904e+02
1.140108913096502619e+02
0.000000000000000000e+00
0.000000000000000000e+00
0.000000000000000000e+00
0.000000000000000000e+00
0.000000000000000000e+00
0.000000000000000000e+00
0.000000000000000000e+00
0.000000000000000000e+00
0.000000000000000000e+00
0.000000000000000000e+00
0.000000000000000000e+00
0.000000000000000000e+00
0.000000000000000000e+00
0.000000000000000000e+00
0.000000000000000000e+00
0.000000000000000000e+00
0.000000000000000000e+00
0.000000000000000000e+00
0.000000000000000000e+00
0.000000000000000000e+00
0.000000000000000000e+00
0.000000000000000000e+00
0.000000000000000000e+00
0.000000000000000000e+00
0.000000000000000000e+00
0.000000000000000000e+00
0.000000000000000000e+00
0.000000000000000000e+00
0.000000000000000000e+00
0.000000000000000000e+00
0.000000000000000000e+00
0.000000000000000000e+00
0.000000000000000000e+00
0.000000000000000000e+00
0.000000000000000000e+00
0.000000000000000000e+00
0.000000000000000000e+00
0.000000000000000000e+00
0.000000000000000000e+00
0.000000000000000000e+00
0.000000000000000000e+00
0.000000000000000000e+00
0.000000000000000000e+00
0.000000000000000000e+00
0.000000000000000000e+00
0.000000000000000000e+00
0.000000000000000000e+00
0.000000000000000000e+00
0.000000000000000000e+00
0.000000000000000000e+00
0.000000000000000000e+00
0.000000000000000000e+00
0.000000000000000000e+00
0.000000000000000000e+00
0.000000000000000000e+00
0.000000000000000000e+00
0.000000000000000000e+00
0.000000000000000000e+00
0.000000000000000000e+00
0.000000000000000000e+00
0.000000000000000000e+00
0.000000000000000000e+00
0.000000000000000000e+00
0.000000000000000000e+00
1.416270496080224177e+02
1.348527681052831895e+02
1.292732233565541549e+02
1.317039098001827426e+02
1.392580379098135950e+02
1.447342068435127942e+02
1.457927407903394510e+02
1.417469039065087486e+02
1.370708035227394532e+02
1.385088387446357672e+02
1.390413994688456683e+02
1.400116900956298309e+02
1.398011452372580266e+02
1.373781456169800776e+02
1.315886570379034310e+02
1.258629159592209135e+02
1.251885872902174413e+02
1.255987026486470342e+02
1.293652263565025180e+02
1.345475470841017795e+02
1.364827785971190792e+02
1.397817478302622476e+02
1.419053562209688835e+02
1.431373860630545209e+02
1.440063512911276860e+02
1.448703677367125522e+02
1.459298279305717188e+02
1.468961359172384959e+02
1.481084156732112262e+02
1.495964649044165355e+02
1.509543539043116880e+02
1.520417765540583446e+02
1.529045629794339334e+02
1.537046552656826748e+02
1.545264699231586860e+02
1.552655873631588008e+02
1.558997420532694775e+02
1.565550738998715019e+02
1.573134957410350410e+02
1.579548096447016690e+02
1.583927915712627623e+02
1.587844322361425213e+02
1.590426764043951380e+02
1.587508943358977263e+02
1.575545467203691032e+02
1.550482946436770249e+02
1.512185378336786812e+02
1.473541055888544804e+02
1.450316200607643680e+02
1.436397904040060212e+02
1.430328603067092956e+02
1.430917319382416792e+02
1.431730869508800765e+02
1.431925452936859529e+02
1.436708209889266641e+02
1.449121669082185520e+02
1.466538383203028388e+02
1.485567759298247381e+02
1.509911404955733190e+02
1.539818023495592172e+02
1.561789108482252288e+02
1.574634429732765568e+02
1.582147976498085882e+02
1.588905434346542620e+02
1.595526650211756987e+02
1.600664260781423138e+02
1.604882984693444712e+02
1.608604198098645952e+02
1.611805946440703963e+02
1.613223041635160939e+02
1.613438444527937179e+02
1.610579009021483330e+02
1.602547557613028175e+02
1.590449515444036592e+02
1.580890846485506529e+02
1.580402441726465952e+02
1.581626753353900483e+02
1.582007659308899008e+02
1.582329049325751384e+02
1.579905900898559139e+02
1.576199966790165661e+02
1.574547334213574743e+02
1.576434480536844660e+02
1.579039776879315014e+02
1.580760439707123055e+02
1.578319373052112837e+02
1.558090008088857701e+02
1.490871591390814217e+02
1.427578561640273733e+02
1.403399462871458923e+02
1.397342322253227849e+02
1.387872385432968656e+02
1.381132598318397982e+02
1.385034891089028122e+02
1.392724481946738990e+02
1.426312979098376559e+02
1.468409504034327995e+02
1.521076925828242281e+02
1.551603432853644051e+02
1.563307583670836607e+02
1.571763569203728821e+02
1.577824239060934701e+02
1.582449776057007682e+02
1.584848864405475410e+02
1.583257372877810099e+02
1.576754738344248494e+02
1.561244069242634680e+02
1.526458765914941580e+02
1.482992928986542438e+02
1.454033968213276466e+02
1.443741229931036401e+02
1.440123941648908783e+02
1.431291959104505622e+02
1.431876975293754697e+02
1.441836226665534468e+02
1.457119816277266011e+02
1.477359216623175087e+02
1.500196399114482517e+02
1.525835106825725234e+02
1.548238494415403750e+02
1.569392520683687167e+02
1.587087359675392406e+02
1.597791655410726150e+02
1.606339950336860909e+02
1.613560775402314391e+02
1.619357092578485720e+02
1.626071088548783621e+02
1.630915831898217334e+02
1.633351791658197385e+02
1.634592180183524022e+02
1.632714043920946381e+02
1.632278898770724140e+02
1.635574562474316735e+02
1.623346393675320769e+02
1.563289693137712959e+02
1.507597717765459890e+02
0.000000000000000000e+00
0.000000000000000000e+00
0.000000000000000000e+00
0.000000000000000000e+00
0.000000000000000000e+00
0.000000000000000000e+00
0.000000000000000000e+00
0.000000000000000000e+00
0.000000000000000000e+00
0.000000000000000000e+00
0.000000000000000000e+00
0.000000000000000000e+00
0.000000000000000000e+00
0.000000000000000000e+00
0.000000000000000000e+00
0.000000000000000000e+00
0.000000000000000000e+00
0.000000000000000000e+00
0.000000000000000000e+00
0.000000000000000000e+00
0.000000000000000000e+00
0.000000000000000000e+00
0.000000000000000000e+00
0.000000000000000000e+00
0.000000000000000000e+00
0.000000000000000000e+00
0.000000000000000000e+00
0.000000000000000000e+00
1.485777452773329799e+02
1.460620988920983336e+02
1.434403410154160099e+02
1.408696729291278302e+02
1.390989598718257980e+02
1.376892626051975697e+02
1.364441915771427318e+02
1.354567626431187932e+02
1.345730199312740467e+02
1.336545035669334993e+02
1.327968925245135949e+02
1.320748962978721579e+02
1.314125204971938103e+02
1.309524459888680497e+02
1.308172019110599820e+02
1.308072841050886836e+02
1.303904197230816919e+02
1.296515814820780292e+02
1.288218056238635825e+02
1.281572879740480175e+02
1.277124465357019716e+02
1.271893712254894382e+02
1.265402131698777595e+02
1.259478073617722771e+02
1.252557019710777553e+02
1.244156107572275118e+02
1.236739416673087533e+02
1.230952479675156184e+02
1.226307814812039254e+02
1.221888078149513888e+02
1.216775055304478599e+02
1.211710006011084886e+02
1.208413016952047769e+02
1.207067149660310150e+02
1.207154640150243807e+02
1.208536909791907448e+02
1.211800144347095198e+02
1.216733281365292783e+02
1.222622427196240551e+02
1.231032896353679291e+02
1.241727894567788582e+02
1.251431679635168308e+02
1.262582615577825464e+02
1.282037401098997407e+02
1.307606368418492764e+02
1.328476868756341673e+02
1.336295868992171165e+02
1.329364018830450220e+02
1.312047085690786332e+02
1.295488110986546815e+02
1.281672493167540665e+02
1.259550143593094873e+02
1.240447246686980378e+02
1.226863452329952082e+02
1.216455985188292459e+02
1.214340638890502078e+02
1.216975822297462457e+02
1.228125391254881720e+02
1.247998045588393552e+02
1.308110265850425549e+02
1.377248524073449403e+02
1.416752088516862216e+02
1.439010537400617977e+02
1.458603988570380920e+02
1.437810234309007171e+02
1.385313623166882167e+02
1.330155983453106501e+02
1.301908044092257626e+02
1.295538148639278688e+02
1.292504177261199914e+02
1.290295963681858211e+02
1.290364874760749103e+02
1.293229782460705337e+02
1.296717990784352423e+02
1.300015366087923212e+02
1.303033416414527892e+02
1.305059298266548637e+02
1.304834044830494690e+02
1.303829589368748145e+02
1.311636109317823866e+02
1.330005036282367996e+02
1.351225306452665222e+02
1.353246742737520378e+02
1.320345334288152799e+02
1.260350998302017729e+02
1.216317940784796576e+02
1.196638159596726183e+02
1.178037132820531809e+02
1.176674037040683061e+02
1.223964627534644478e+02
1.285263124998061812e+02
1.360639814650822075e+02
1.408681951551997145e+02
1.395982390161493072e+02
1.364025584674126605e+02
0.000000000000000000e+00
0.000000000000000000e+00
0.000000000000000000e+00
0.000000000000000000e+00
0.000000000000000000e+00
0.000000000000000000e+00
0.000000000000000000e+00
0.000000000000000000e+00
0.000000000000000000e+00
0.000000000000000000e+00
0.000000000000000000e+00
0.000000000000000000e+00
0.000000000000000000e+00
1.286743423784989773e+02
1.237165860130074293e+02
1.212907196729449169e+02
1.202033913657064659e+02
1.196244509297023910e+02
1.191614885819533214e+02
1.187350758907577841e+02
1.181501924740795602e+02
1.173062296401135001e+02
1.162094505150044341e+02
1.148893110835008287e+02
1.130843888735807354e+02
1.111857089250070345e+02
1.110373590443397660e+02
1.126972400441884474e+02
1.144747471815479827e+02
1.146875564858338805e+02
1.136551959056839394e+02
1.115142655680937764e+02
1.097385540910414647e+02
1.087308827935603261e+02
1.079321736386649206e+02
1.070889195898184880e+02
1.063422729203373791e+02
1.058988967550648397e+02
1.057050162899690235e+02
1.056107019536011506e+02
1.055830584223301116e+02
1.056512488162705239e+02
1.056748789473979002e+02
1.056211268032346453e+02
1.057221550662960823e+02
1.060330499407480858e+02
1.062799204322185602e+02
1.064555640706942796e+02
1.065903207924684040e+02
1.064302876115631449e+02
1.056750301166329393e+02
1.044399941844178130e+02
1.036146360718777544e+02
1.030196588163587137e+02
1.027248975893252521e+02
1.026178764331644402e+02
1.019554778528620744e+02
1.009939884916072970e+02
1.006029365971025271e+02
1.003126506256132018e+02
9.951905549518249927e+01
9.854111190015551358e+01
9.750650076554360624e+01
9.600684187621200749e+01
9.359110747761090465e+01
9.025009468086088305e+01
8.565573391142763171e+01
7.944807491732746030e+01
7.790152849190293693e+01
8.307998415558579097e+01
0.000000000000000000e+00
0.000000000000000000e+00
0.000000000000000000e+00
0.000000000000000000e+00
0.000000000000000000e+00
0.000000000000000000e+00
0.000000000000000000e+00
0.000000000000000000e+00
0.000000000000000000e+00
0.000000000000000000e+00
0.000000000000000000e+00
0.000000000000000000e+00
0.000000000000000000e+00
0.000000000000000000e+00
0.000000000000000000e+00
0.000000000000000000e+00
0.000000000000000000e+00
0.000000000000000000e+00
0.000000000000000000e+00
0.000000000000000000e+00
0.000000000000000000e+00
0.000000000000000000e+00
0.000000000000000000e+00
0.000000000000000000e+00
0.000000000000000000e+00
0.000000000000000000e+00
0.000000000000000000e+00
0.000000000000000000e+00
0.000000000000000000e+00
0.000000000000000000e+00
0.000000000000000000e+00
0.000000000000000000e+00
0.000000000000000000e+00
0.000000000000000000e+00
0.000000000000000000e+00
0.000000000000000000e+00
0.000000000000000000e+00
0.000000000000000000e+00
0.000000000000000000e+00
0.000000000000000000e+00
0.000000000000000000e+00
0.000000000000000000e+00
0.000000000000000000e+00
0.000000000000000000e+00
0.000000000000000000e+00
0.000000000000000000e+00
0.000000000000000000e+00
0.000000000000000000e+00
0.000000000000000000e+00
0.000000000000000000e+00
0.000000000000000000e+00
0.000000000000000000e+00
0.000000000000000000e+00
0.000000000000000000e+00
0.000000000000000000e+00
0.000000000000000000e+00
0.000000000000000000e+00
0.000000000000000000e+00
0.000000000000000000e+00
0.000000000000000000e+00
0.000000000000000000e+00
0.000000000000000000e+00
0.000000000000000000e+00
0.000000000000000000e+00
0.000000000000000000e+00
0.000000000000000000e+00
0.000000000000000000e+00
0.000000000000000000e+00
0.000000000000000000e+00
0.000000000000000000e+00
0.000000000000000000e+00
0.000000000000000000e+00
0.000000000000000000e+00
0.000000000000000000e+00
0.000000000000000000e+00
0.000000000000000000e+00
0.000000000000000000e+00
0.000000000000000000e+00
0.000000000000000000e+00
0.000000000000000000e+00
0.000000000000000000e+00
0.000000000000000000e+00
0.000000000000000000e+00
0.000000000000000000e+00
0.000000000000000000e+00
0.000000000000000000e+00
0.000000000000000000e+00
0.000000000000000000e+00
0.000000000000000000e+00
0.000000000000000000e+00
0.000000000000000000e+00
0.000000000000000000e+00
0.000000000000000000e+00
0.000000000000000000e+00
0.000000000000000000e+00
0.000000000000000000e+00
0.000000000000000000e+00
0.000000000000000000e+00
0.000000000000000000e+00
0.000000000000000000e+00
0.000000000000000000e+00
0.000000000000000000e+00
0.000000000000000000e+00
0.000000000000000000e+00
0.000000000000000000e+00
0.000000000000000000e+00
0.000000000000000000e+00
0.000000000000000000e+00
0.000000000000000000e+00
0.000000000000000000e+00
0.000000000000000000e+00
0.000000000000000000e+00
0.000000000000000000e+00
0.000000000000000000e+00
0.000000000000000000e+00
0.000000000000000000e+00
0.000000000000000000e+00
0.000000000000000000e+00
1.342887292805820323e+02
1.389847907053588756e+02
1.422337114016374073e+02
1.495078953575769560e+02
1.369588214749191479e+02
1.331022040819212862e+02
0.000000000000000000e+00
0.000000000000000000e+00
0.000000000000000000e+00
0.000000000000000000e+00
0.000000000000000000e+00
0.000000000000000000e+00
0.000000000000000000e+00
0.000000000000000000e+00
0.000000000000000000e+00
0.000000000000000000e+00
0.000000000000000000e+00
0.000000000000000000e+00
0.000000000000000000e+00
0.000000000000000000e+00
0.000000000000000000e+00
0.000000000000000000e+00
0.000000000000000000e+00
0.000000000000000000e+00
1.013180305691005287e+02
1.049639142507360958e+02
1.073849373246520429e+02
1.094607337922663959e+02
1.107861466378142268e+02
1.112642024856129837e+02
1.116571828264622894e+02
1.114041962700771364e+02
1.106694077973528323e+02
1.100669805141732240e+02
1.120516045871991793e+02
1.157918898833583512e+02
1.147965453184087323e+02
1.137407478309344953e+02
1.147534188855930637e+02
1.154256844147643193e+02
1.161450784628678576e+02
1.168928656821648815e+02
1.175857946004357046e+02
1.184761646082750985e+02
1.195483819208121474e+02
1.206125877022123802e+02
1.218795839866182718e+02
1.231058724722658582e+02
1.245877157187429134e+02
1.262219633842140354e+02
1.278449075204003123e+02
1.295696922875134192e+02
1.311553554253747222e+02
1.324755403830664875e+02
1.338307733839210698e+02
1.352824151427670358e+02
1.368204404739463200e+02
1.383438217193569528e+02
1.397316336609914345e+02
1.409504366893340261e+02
1.418416970363615235e+02
1.426104877858533087e+02
1.434934958627289348e+02
1.443556742622631646e+02
1.451753984170915430e+02
1.459865505347165140e+02
1.466869888862856612e+02
1.472146275109145392e+02
1.476999985822112080e+02
1.482309276303830359e+02
1.487351097593891325e+02
1.493010809922306521e+02
1.500975616894594111e+02
1.508366394896785039e+02
1.514839064389233272e+02
1.521062419777438208e+02
1.527417674744670819e+02
1.532598308465101127e+02
1.534940848731748702e+02
1.538054649352081071e+02
1.541204897427911646e+02
1.542670256810500007e+02
1.542136301823164217e+02
1.540664103159982687e+02
1.540210158886948193e+02
1.540433441618222048e+02
1.540852918723574021e+02
1.542451062838935627e+02
1.542666578802378012e+02
1.539533897883764268e+02
1.530889920559765756e+02
1.505744869342277354e+02
1.502576822390909967e+02
1.540709651878625550e+02
1.549770398139949634e+02
1.543939693137352265e+02
1.538829316471883715e+02
1.540608271083810621e+02
1.554039489734538790e+02
1.566195858909508445e+02
1.559204096067025489e+02
1.546113771666232424e+02
1.538926911109309117e+02
1.536406845859665964e+02
1.537325087836964030e+02
1.539152209582754267e+02
1.540490001921224916e+02
1.541713534745499317e+02
1.544309313697528125e+02
1.548087158995166419e+02
1.551788409421782546e+02
1.555017207527170342e+02
1.557116298187399082e+02
1.555376871757929393e+02
1.538240211151789367e+02
1.513866396190851447e+02
1.530594305099479868e+02
1.552436001088908597e+02
1.555625348201570546e+02
1.545869025866539062e+02
1.541201222913474567e+02
1.538004778851254457e+02
1.535979057755580754e+02
1.536671342954636259e+02
1.538988553016750984e+02
1.541296763136133166e+02
1.544310050081768395e+02
1.550022413574802727e+02
1.554811086973055581e+02
1.558272042748621686e+02
1.563487245791911278e+02
1.570114090774971771e+02
1.578909522794600662e+02
1.623937117974765556e+02
1.654901544290125628e+02
1.625813685713223720e+02
1.600721506019842764e+02
1.602860891472457183e+02
1.601427698982157040e+02
1.599085099938781696e+02
1.595485567195425460e+02
1.588708457777630656e+02
1.581279115319178459e+02
1.574993374168778644e+02
1.569121643292697286e+02
1.563322492604839908e+02
1.556779986129114661e+02
1.549222165952066064e+02
1.541277654617804558e+02
1.531683620149547664e+02
1.520093003954500546e+02
1.508249162494077211e+02
1.495195875256143268e+02
1.478779385219551727e+02
1.460750539641187800e+02
1.441208656528324070e+02
1.419227473834919238e+02
1.381239291644859577e+02
1.346729045937452725e+02
1.353615892283579285e+02
1.366128705183676004e+02
1.355169746637575940e+02
1.354005802860533834e+02
1.363317463252204789e+02
1.354992700693955214e+02
1.332203705951139057e+02
1.305708519395416261e+02
1.287335038411364962e+02
1.277159786708693332e+02
1.266227839534414130e+02
1.256010383853747641e+02
1.248608163813895260e+02
1.240375678299510156e+02
1.220927097535815307e+02
1.196664978169597902e+02
1.164911230487503957e+02
1.134939176705916140e+02
1.147822592609560957e+02
1.205560086143776033e+02
1.241534884317628809e+02
0.000000000000000000e+00
0.000000000000000000e+00
0.000000000000000000e+00
0.000000000000000000e+00
0.000000000000000000e+00
0.000000000000000000e+00
0.000000000000000000e+00
0.000000000000000000e+00
0.000000000000000000e+00
1.191933123810260895e+02
1.162704207862504830e+02
1.154031205258034305e+02
1.141592945200929421e+02
1.128042298788487301e+02
1.103461290479943386e+02
1.063384698923000116e+02
1.071542503350006541e+02
1.123145763795543388e+02
1.114752425746946329e+02
1.088411133472447574e+02
1.139743097840814698e+02
1.191822867457365192e+02
1.217379197141781333e+02
0.000000000000000000e+00
0.000000000000000000e+00
0.000000000000000000e+00
0.000000000000000000e+00
1.202298176116085813e+02
1.158029884042333748e+02
1.135484818448397277e+02
1.123421609845713078e+02
1.113379201601191397e+02
1.105940233162023674e+02
1.101471002843355791e+02
1.099657329396069372e+02
1.099919539390667751e+02
1.101031479491390002e+02
1.099267800798560728e+02
1.092864893126527193e+02
1.082503417313551779e+02
1.076146328134026930e+02
1.082455929992670747e+02
1.090443336244087504e+02
1.095330476675357545e+02
1.103060420746739396e+02
1.109635758155132521e+02
1.106523112214204616e+02
1.084924413780562276e+02
1.072004502876894350e+02
1.066905972482011009e+02
1.062771331669303692e+02
1.057138373719338347e+02
1.043999619591230186e+02
1.034800392459377036e+02
1.014421239232293459e+02
0.000000000000000000e+00
0.000000000000000000e+00
0.000000000000000000e+00
0.000000000000000000e+00
0.000000000000000000e+00
0.000000000000000000e+00
0.000000000000000000e+00
0.000000000000000000e+00
0.000000000000000000e+00
0.000000000000000000e+00
0.000000000000000000e+00
0.000000000000000000e+00
0.000000000000000000e+00
0.000000000000000000e+00
0.000000000000000000e+00
0.000000000000000000e+00
0.000000000000000000e+00
0.000000000000000000e+00
0.000000000000000000e+00
0.000000000000000000e+00
0.000000000000000000e+00
0.000000000000000000e+00
0.000000000000000000e+00
0.000000000000000000e+00
0.000000000000000000e+00
0.000000000000000000e+00
0.000000000000000000e+00
0.000000000000000000e+00
0.000000000000000000e+00
0.000000000000000000e+00
0.000000000000000000e+00
0.000000000000000000e+00
0.000000000000000000e+00
0.000000000000000000e+00
0.000000000000000000e+00
0.000000000000000000e+00
0.000000000000000000e+00
0.000000000000000000e+00
0.000000000000000000e+00
0.000000000000000000e+00
0.000000000000000000e+00
0.000000000000000000e+00
0.000000000000000000e+00
0.000000000000000000e+00
0.000000000000000000e+00
0.000000000000000000e+00
0.000000000000000000e+00
0.000000000000000000e+00
0.000000000000000000e+00
0.000000000000000000e+00
0.000000000000000000e+00
0.000000000000000000e+00
0.000000000000000000e+00
0.000000000000000000e+00
0.000000000000000000e+00
0.000000000000000000e+00
0.000000000000000000e+00
0.000000000000000000e+00
0.000000000000000000e+00
0.000000000000000000e+00
0.000000000000000000e+00
0.000000000000000000e+00
0.000000000000000000e+00
0.000000000000000000e+00
0.000000000000000000e+00
0.000000000000000000e+00
0.000000000000000000e+00
0.000000000000000000e+00
0.000000000000000000e+00
9.228921876062413787e+01
9.356464698222116283e+01
8.841423311658037676e+01
8.508367429791661607e+01
8.761030887034284831e+01
8.906519481980463127e+01
0.000000000000000000e+00
0.000000000000000000e+00
0.000000000000000000e+00
0.000000000000000000e+00
0.000000000000000000e+00
0.000000000000000000e+00
0.000000000000000000e+00
