0.000000000000000000e+00
0.000000000000000000e+00
0.000000000000000000e+00
0.000000000000000000e+00
0.000000000000000000e+00
0.000000000000000000e+00
0.000000000000000000e+00
0.000000000000000000e+00
0.000000000000000000e+00
0.000000000000000000e+00
0.000000000000000000e+00
0.000000000000000000e+00
0.000000000000000000e+00
0.000000000000000000e+00
0.000000000000000000e+00
0.000000000000000000e+00
0.000000000000000000e+00
0.000000000000000000e+00
0.000000000000000000e+00
0.000000000000000000e+00
0.000000000000000000e+00
0.000000000000000000e+00
0.000000000000000000e+00
0.000000000000000000e+00
0.000000000000000000e+00
0.000000000000000000e+00
0.000000000000000000e+00
0.000000000000000000e+00
0.000000000000000000e+00
0.000000000000000000e+00
0.000000000000000000e+00
0.000000000000000000e+00
0.000000000000000000e+00
0.000000000000000000e+00
0.000000000000000000e+00
0.000000000000000000e+00
0.000000000000000000e+00
0.000000000000000000e+00
0.000000000000000000e+00
0.000000000000000000e+00
0.000000000000000000e+00
0.000000000000000000e+00
0.000000000000000000e+00
0.000000000000000000e+00
0.000000000000000000e+00
0.000000000000000000e+00
0.000000000000000000e+00
0.000000000000000000e+00
0.000000000000000000e+00
0.000000000000000000e+00
0.000000000000000000e+00
0.000000000000000000e+00
0.000000000000000000e+00
0.000000000000000000e+00
0.000000000000000000e+00
0.000000000000000000e+00
0.000000000000000000e+00
0.000000000000000000e+00
0.000000000000000000e+00
0.000000000000000000e+00
0.000000000000000000e+00
0.000000000000000000e+00
0.000000000000000000e+00
0.000000000000000000e+00
0.000000000000000000e+00
0.000000000000000000e+00
0.000000000000000000e+00
0.000000000000000000e+00
0.000000000000000000e+00
0.000000000000000000e+00
0.000000000000000000e+00
0.000000000000000000e+00
0.000000000000000000e+00
0.000000000000000000e+00
0.000000000000000000e+00
0.000000000000000000e+00
0.000000000000000000e+00
0.000000000000000000e+00
0.000000000000000000e+00
0.000000000000000000e+00
0.000000000000000000e+00
1.332800333842574503e+02
1.265596438439057607e+02
1.258944883950758538e+02
1.260512071820263742e+02
1.267751499985368611e+02
1.280090594108074527e+02
1.295282420939921906e+02
1.311482886243582868e+02
1.323284377396819025e+02
1.329289855750414517e+02
1.334342382384161567e+02
1.338273912059190707e+02
1.337290901482906236e+02
1.317015861719119414e+02
1.263939754772534059e+02
1.219359702388742903e+02
1.216720517392158740e+02
1.224606790930182569e+02
1.229513499010524242e+02
1.230190836283992013e+02
1.233584300363827708e+02
1.238505128081153401e+02
1.245835572244839398e+02
1.257803608710593863e+02
1.277022160747493018e+02
1.311652370776335488e+02
1.354367409694472997e+02
1.390504165756096882e+02
1.419290412087212587e+02
1.443297261202946515e+02
1.465235467129885194e+02
1.484152394523065084e+02
1.501471693470624302e+02
1.518182810447559632e+02
1.532081720072925464e+02
1.543249284618356114e+02
1.553115707763294608e+02
1.562655456972132129e+02
1.570497466207269497e+02
1.575172877069195749e+02
1.576912635851922744e+02
1.577230734549860642e+02
1.577138231149375258e+02
1.574604396250920786e+02
1.569702365959291797e+02
1.563827989585616081e+02
1.556938852971143490e+02
1.542504019602659469e+02
1.535944634782533740e+02
1.542855639778688328e+02
1.546148422545882966e+02
1.547144783080616435e+02
1.548728036611908863e+02
1.549975850452382531e+02
1.551633027622743839e+02
1.554207711235395948e+02
1.555916153127720349e+02
1.556489019750246712e+02
1.559722392247355742e+02
1.576788572193432572e+02
1.593189644564311038e+02
1.576717897867457339e+02
1.563801890608096983e+02
1.549018290800234183e+02
1.537220997731911325e+02
1.527130739874947380e+02
1.518675159929562710e+02
1.512299311084795193e+02
1.507825619509371506e+02
1.503099947090399269e+02
1.497534801848541690e+02
1.489751629181458554e+02
1.479340780775015105e+02
1.478751180010152098e+02
1.488068296192003857e+02
1.478302084542814043e+02
1.458846744055757370e+02
1.453074705780514932e+02
1.450568643674596103e+02
1.442106447772000877e+02
1.441155054221621299e+02
1.445954849088296896e+02
1.449587474599864834e+02
1.453408019289652486e+02
1.460180880915515331e+02
1.471194705973647388e+02
1.482281003767743357e+02
1.492553113582752928e+02
1.500904762193200384e+02
1.512093805704890030e+02
1.522921771538356097e+02
1.530887730605734305e+02
1.534284459719481504e+02
1.533184522006149280e+02
1.527304059567913725e+02
1.514075752313265752e+02
1.493170289198383500e+02
1.472737455926802568e+02
1.437581947185702234e+02
1.415620302200423453e+02
1.400378635500836424e+02
1.379682518604746235e+02
1.392415044430061357e+02
1.407500905696597329e+02
1.433554845984274380e+02
1.467969849154752353e+02
1.486496727826930737e+02
0.000000000000000000e+00
0.000000000000000000e+00
0.000000000000000000e+00
0.000000000000000000e+00
0.000000000000000000e+00
0.000000000000000000e+00
0.000000000000000000e+00
0.000000000000000000e+00
1.706309762688158287e+02
1.637325600850589638e+02
1.592339775947973237e+02
1.585321256561823304e+02
1.591651251745363425e+02
1.596907350064564355e+02
1.597672805547750272e+02
1.592061142083109075e+02
1.569284762750872346e+02
1.504723508864395001e+02
1.425603791321278209e+02
1.408911695753953666e+02
1.389152875944593575e+02
1.405375641509285742e+02
1.433832403171240628e+02
1.465243152615919939e+02
1.505103118515350502e+02
1.527082679914179266e+02
1.531300957397805007e+02
1.529781474522980602e+02
1.527542952556579792e+02
1.529084272888600822e+02
1.535379329531966448e+02
1.543951472507338281e+02
1.556450426255072159e+02
1.574213262467638970e+02
1.593929756449569766e+02
1.615400703337662094e+02
1.631499975118376540e+02
1.628693179384851533e+02
1.568240492927990317e+02
1.446555515251532995e+02
1.395667570247229321e+02
1.391917830756148646e+02
1.404384191109008100e+02
1.447754834876580219e+02
1.520949277328886637e+02
1.585997967325349407e+02
1.547411866607324384e+02
0.000000000000000000e+00
0.000000000000000000e+00
0.000000000000000000e+00
0.000000000000000000e+00
0.000000000000000000e+00
0.000000000000000000e+00
0.000000000000000000e+00
0.000000000000000000e+00
0.000000000000000000e+00
1.570582090972158937e+02
1.635371800334700367e+02
1.562727736465871544e+02
1.526379429900368336e+02
1.518397107659747292e+02
1.515745861790864240e+02
1.510253435073931598e+02
1.504325344567313039e+02
1.497075718637217960e+02
1.490435160857213361e+02
1.484195564790528863e+02
1.476559167031686570e+02
1.469677399009131307e+02
1.465090149163497983e+02
1.463295124864694969e+02
1.462928152552756558e+02
1.464677329165654953e+02
1.466279665028324928e+02
1.463954650495385579e+02
1.459967838297122853e+02
1.456387671724149868e+02
1.454241984318993275e+02
1.454323118666184200e+02
1.454192057739754489e+02
1.455329699512673756e+02
1.457087160626195441e+02
1.457409580384589560e+02
1.455178425124694286e+02
1.451623846958189290e+02
1.446968747344750739e+02
1.440839665644365652e+02
1.434710548635914336e+02
1.430031267228070249e+02
1.424901750609570570e+02
1.417004094821984381e+02
1.406660878257274021e+02
1.396041634827160181e+02
1.386956110092264112e+02
1.382021961255993858e+02
1.392915092488229334e+02
1.428333001456344107e+02
1.473156059948744030e+02
0.000000000000000000e+00
0.000000000000000000e+00
0.000000000000000000e+00
0.000000000000000000e+00
0.000000000000000000e+00
0.000000000000000000e+00
0.000000000000000000e+00
0.000000000000000000e+00
0.000000000000000000e+00
0.000000000000000000e+00
0.000000000000000000e+00
0.000000000000000000e+00
0.000000000000000000e+00
0.000000000000000000e+00
0.000000000000000000e+00
0.000000000000000000e+00
0.000000000000000000e+00
0.000000000000000000e+00
0.000000000000000000e+00
0.000000000000000000e+00
0.000000000000000000e+00
0.000000000000000000e+00
0.000000000000000000e+00
0.000000000000000000e+00
0.000000000000000000e+00
0.000000000000000000e+00
0.000000000000000000e+00
0.000000000000000000e+00
0.000000000000000000e+00
0.000000000000000000e+00
0.000000000000000000e+00
0.000000000000000000e+00
0.000000000000000000e+00
0.000000000000000000e+00
0.000000000000000000e+00
0.000000000000000000e+00
0.000000000000000000e+00
0.000000000000000000e+00
0.000000000000000000e+00
0.000000000000000000e+00
0.000000000000000000e+00
0.000000000000000000e+00
0.000000000000000000e+00
0.000000000000000000e+00
0.000000000000000000e+00
0.000000000000000000e+00
0.000000000000000000e+00
0.000000000000000000e+00
0.000000000000000000e+00
0.000000000000000000e+00
0.000000000000000000e+00
0.000000000000000000e+00
0.000000000000000000e+00
0.000000000000000000e+00
0.000000000000000000e+00
0.000000000000000000e+00
0.000000000000000000e+00
0.000000000000000000e+00
0.000000000000000000e+00
0.000000000000000000e+00
0.000000000000000000e+00
0.000000000000000000e+00
0.000000000000000000e+00
0.000000000000000000e+00
0.000000000000000000e+00
0.000000000000000000e+00
0.000000000000000000e+00
0.000000000000000000e+00
0.000000000000000000e+00
0.000000000000000000e+00
0.000000000000000000e+00
0.000000000000000000e+00
0.000000000000000000e+00
0.000000000000000000e+00
0.000000000000000000e+00
0.000000000000000000e+00
0.000000000000000000e+00
0.000000000000000000e+00
0.000000000000000000e+00
0.000000000000000000e+00
0.000000000000000000e+00
0.000000000000000000e+00
0.000000000000000000e+00
0.000000000000000000e+00
0.000000000000000000e+00
0.000000000000000000e+00
0.000000000000000000e+00
0.000000000000000000e+00
0.000000000000000000e+00
0.000000000000000000e+00
0.000000000000000000e+00
0.000000000000000000e+00
0.000000000000000000e+00
0.000000000000000000e+00
0.000000000000000000e+00
0.000000000000000000e+00
0.000000000000000000e+00
0.000000000000000000e+00
0.000000000000000000e+00
0.000000000000000000e+00
0.000000000000000000e+00
0.000000000000000000e+00
0.000000000000000000e+00
0.000000000000000000e+00
0.000000000000000000e+00
0.000000000000000000e+00
0.000000000000000000e+00
0.000000000000000000e+00
0.000000000000000000e+00
0.000000000000000000e+00
0.000000000000000000e+00
0.000000000000000000e+00
0.000000000000000000e+00
0.000000000000000000e+00
0.000000000000000000e+00
0.000000000000000000e+00
0.000000000000000000e+00
0.000000000000000000e+00
0.000000000000000000e+00
0.000000000000000000e+00
0.000000000000000000e+00
0.000000000000000000e+00
0.000000000000000000e+00
0.000000000000000000e+00
0.000000000000000000e+00
0.000000000000000000e+00
0.000000000000000000e+00
0.000000000000000000e+00
0.000000000000000000e+00
0.000000000000000000e+00
0.000000000000000000e+00
0.000000000000000000e+00
0.000000000000000000e+00
0.000000000000000000e+00
0.000000000000000000e+00
1.463184186265526705e+02
1.465157217203182825e+02
1.318259893054677150e+02
1.242561261608334036e+02
1.225869915913726089e+02
1.226280331910730439e+02
1.244533478064336123e+02
1.263507094950934260e+02
1.278173560261176647e+02
1.294381599336817033e+02
1.307909431971659444e+02
1.316533644407712984e+02
1.320847212653330018e+02
1.320175356006799063e+02
1.316467729980849128e+02
1.298096966174444447e+02
1.259511105177863897e+02
1.228798448196131545e+02
1.214572278076369685e+02
1.212676453351414807e+02
1.213997315088242033e+02
1.219038791944220748e+02
1.229787321193725518e+02
1.245226808814778821e+02
1.265419026752744998e+02
1.290810424462935089e+02
1.317234424583787700e+02
1.342578044894277696e+02
1.367123135278516486e+02
1.391931768906934224e+02
1.416138812774763096e+02
1.438810188629846039e+02
1.458676324088372667e+02
1.476417654079695012e+02
1.490364803726104412e+02
1.500428190220947613e+02
1.511419799916461670e+02
1.521695012084137204e+02
1.530310422020085639e+02
1.536861134851155839e+02
1.542199543038541378e+02
1.546466952112916715e+02
1.549448971647968278e+02
1.550979114817828872e+02
1.550532482196148010e+02
1.549518423679845682e+02
1.554964562629313605e+02
1.566142088764995606e+02
1.570283303547920468e+02
1.571967439698862847e+02
1.573684147827079300e+02
1.573745681098377247e+02
1.571272739553445774e+02
1.569281769580580033e+02
1.568788722715735275e+02
1.569297483788305669e+02
1.570664473441814550e+02
1.572541717096811738e+02
1.575257753764160498e+02
1.579664844781345039e+02
1.589805776529067884e+02
1.607310718138410266e+02
1.615353716753091078e+02
1.609704512837793402e+02
1.599864568116589112e+02
1.593625767466963339e+02
1.586829317915740774e+02
1.578728088481904024e+02
1.567350121528720024e+02
1.552925389521936097e+02
1.539912743684887175e+02
1.525662681323181573e+02
1.508400199797418111e+02
1.489897261930584875e+02
1.472198222105064360e+02
1.455424080490767267e+02
1.434466337404243461e+02
1.413430880950280653e+02
1.402161333089689776e+02
1.412336093566285911e+02
1.439497116796719638e+02
1.475580822487464729e+02
1.499771541749599066e+02
1.494152458807707546e+02
1.444892742970352515e+02
1.355260216998038061e+02
1.309239126504584760e+02
1.288460715834115717e+02
1.287403791355563953e+02
1.301086987175030174e+02
1.344581415674361153e+02
0.000000000000000000e+00
0.000000000000000000e+00
0.000000000000000000e+00
0.000000000000000000e+00
0.000000000000000000e+00
0.000000000000000000e+00
0.000000000000000000e+00
0.000000000000000000e+00
0.000000000000000000e+00
0.000000000000000000e+00
0.000000000000000000e+00
0.000000000000000000e+00
0.000000000000000000e+00
0.000000000000000000e+00
1.637727730132821193e+02
1.539953864340433256e+02
1.494149608940775806e+02
1.487326984164159569e+02
1.494387591553112600e+02
1.499252435031202424e+02
1.493482889510775067e+02
1.461719748363678661e+02
1.387755253701021161e+02
1.373711365463011020e+02
1.377090262858496885e+02
1.382410166429606306e+02
1.392681980017085834e+02
1.414494815881810439e+02
1.446531373453250637e+02
1.476302200823098190e+02
1.505479234587246822e+02
1.540879369443972848e+02
1.560436539939700822e+02
1.563004217749056863e+02
1.563968185832856364e+02
1.564723821318891908e+02
1.562706871938876532e+02
1.560543690292411725e+02
1.558235634115351615e+02
1.555626089981717826e+02
1.552213939221074384e+02
1.549176365573996179e+02
1.546742769133495017e+02
1.544030985605435831e+02
1.541269570315981241e+02
1.538160262809564642e+02
1.535069671499779815e+02
1.530937370333051604e+02
1.524704147237976031e+02
1.519074224923760710e+02
1.518490510165282217e+02
1.530967300946454657e+02
1.546464739875779060e+02
1.562740404350315373e+02
1.573558087175491380e+02
1.583810097087709323e+02
1.594361520440497202e+02
1.603576439342097046e+02
1.611956592997861151e+02
1.620412219895049191e+02
1.629760606863201531e+02
1.639239525937474298e+02
1.648628921939588849e+02
1.657782753967065048e+02
1.666773602225680690e+02
1.675733304513688324e+02
1.686814276331419080e+02
1.700111409470749209e+02
1.713707019507114637e+02
1.727572803743146039e+02
1.741283397597514693e+02
1.751191321581333966e+02
1.743875888501136160e+02
1.705259687152228025e+02
1.605052117798006179e+02
1.533528899050647283e+02
1.505901400410653537e+02
1.491737722706630791e+02
1.491461046452864707e+02
1.491064258544699044e+02
1.493505678425019880e+02
1.483706611108346749e+02
1.495956802417891822e+02
1.551930486397505149e+02
1.627101107482071427e+02
1.593160016850918907e+02
1.586008555039380781e+02
1.556719858516193540e+02
1.641357602211540723e+02
1.605385078922322748e+02
1.561561241068429240e+02
1.513258705546247711e+02
1.453562575192600548e+02
1.392286243072460650e+02
1.346291798856842945e+02
0.000000000000000000e+00
0.000000000000000000e+00
0.000000000000000000e+00
0.000000000000000000e+00
0.000000000000000000e+00
0.000000000000000000e+00
0.000000000000000000e+00
0.000000000000000000e+00
0.000000000000000000e+00
0.000000000000000000e+00
0.000000000000000000e+00
0.000000000000000000e+00
0.000000000000000000e+00
0.000000000000000000e+00
1.514464942850171667e+02
1.441294561818495481e+02
1.394476157533049445e+02
1.377852842028505620e+02
1.370787777298792776e+02
1.363903961915052605e+02
1.359516550682124318e+02
1.358807530430540567e+02
1.357200966791924373e+02
1.350099514065444168e+02
1.339675359859646733e+02
1.321635363823380089e+02
1.289026689559962620e+02
1.237063807028492732e+02
1.191967794152702851e+02
1.175002640071343336e+02
1.159715846952514227e+02
1.159051889362600889e+02
1.196776253136736301e+02
1.256001999107825213e+02
1.306339998931945559e+02
1.351787910046474224e+02
1.415042602679135371e+02
1.428025866388301210e+02
1.470057279958898562e+02
0.000000000000000000e+00
0.000000000000000000e+00
0.000000000000000000e+00
0.000000000000000000e+00
0.000000000000000000e+00
0.000000000000000000e+00
0.000000000000000000e+00
0.000000000000000000e+00
0.000000000000000000e+00
0.000000000000000000e+00
0.000000000000000000e+00
0.000000000000000000e+00
0.000000000000000000e+00
0.000000000000000000e+00
0.000000000000000000e+00
1.265234400186032246e+02
1.232628227230125191e+02
1.231346395455013294e+02
1.230741190813118635e+02
1.231252454764056239e+02
1.231676418937670832e+02
1.230704218991141516e+02
1.227472603164347476e+02
1.224121634562175416e+02
1.221822241418069410e+02
1.219237606938691840e+02
1.219514955687699427e+02
1.224146734206801312e+02
1.228137103627160229e+02
1.229747446076385415e+02
1.229975572662237511e+02
1.228250719435011575e+02
1.223228305754293501e+02
1.215717803802699848e+02
1.207065422938136976e+02
1.197556038720957474e+02
1.188651970675784213e+02
1.168928099433162942e+02
1.129792882088340207e+02
1.126061905413261570e+02
1.119885744862975940e+02
1.104848096529463675e+02
1.109679675615807497e+02
1.156804115516140854e+02
1.291580036770716049e+02
1.276698858990101115e+02
1.262876448360962200e+02
1.253895011798495460e+02
1.258270314388036581e+02
1.263489622944895103e+02
1.271291007833745539e+02
1.285508292864775228e+02
1.308168276405785662e+02
1.316801102512402224e+02
1.300363174056139428e+02
1.266967087453166414e+02
1.236349670990988017e+02
1.222546640610739530e+02
1.212113947386755228e+02
1.210370278207303443e+02
1.212635398353623941e+02
1.220587731782563878e+02
1.244890186498479920e+02
1.270508040202836071e+02
1.278869776705825529e+02
1.298926046206660487e+02
1.314058784535358200e+02
1.323366408790369633e+02
1.316327751240214354e+02
1.296977712586056555e+02
1.278593561417743132e+02
1.266432539018872063e+02
1.258593150438225194e+02
1.252278127668380989e+02
1.246172450196489336e+02
1.241127648264377257e+02
1.236404499190801261e+02
1.229022296425027037e+02
1.219567292714849174e+02
1.209996920061384742e+02
1.206613682178432185e+02
1.204076147544003419e+02
1.196404806322867387e+02
1.186489356277551650e+02
1.176591560891421011e+02
1.167969784505331603e+02
1.166382495725797099e+02
1.171804970757017088e+02
1.171029668261000580e+02
1.167791580055866518e+02
1.167623424545400184e+02
1.169949123164999776e+02
1.173834466805654841e+02
1.176528164788292230e+02
1.173013073780994517e+02
1.164614090356532756e+02
1.156676149727063745e+02
1.148942964894909267e+02
1.140393819346880093e+02
1.130844427964322136e+02
1.119672697879266963e+02
1.107015501772230408e+02
1.095683082051451720e+02
1.089585733223642023e+02
1.090819855097953877e+02
1.104734306542223408e+02
1.134552839119597394e+02
1.151725616324390700e+02
1.158883887120794611e+02
1.157223412949609269e+02
1.154211162469699872e+02
1.147845033131910384e+02
1.142460430450559272e+02
1.138366771826442090e+02
1.135692209424172319e+02
1.133807049550275536e+02
1.134446808671960980e+02
1.138043299709613194e+02
1.139557245619388652e+02
1.137743247554751491e+02
1.136611575143013511e+02
1.137759523218871749e+02
1.140545000804178812e+02
1.144687428995733995e+02
1.157486654883812633e+02
1.199775438045577545e+02
1.259055946514019126e+02
1.324029156479965934e+02
0.000000000000000000e+00
0.000000000000000000e+00
0.000000000000000000e+00
0.000000000000000000e+00
0.000000000000000000e+00
0.000000000000000000e+00
0.000000000000000000e+00
0.000000000000000000e+00
0.000000000000000000e+00
0.000000000000000000e+00
0.000000000000000000e+00
0.000000000000000000e+00
0.000000000000000000e+00
0.000000000000000000e+00
0.000000000000000000e+00
0.000000000000000000e+00
0.000000000000000000e+00
0.000000000000000000e+00
0.000000000000000000e+00
0.000000000000000000e+00
0.000000000000000000e+00
0.000000000000000000e+00
0.000000000000000000e+00
0.000000000000000000e+00
0.000000000000000000e+00
0.000000000000000000e+00
0.000000000000000000e+00
0.000000000000000000e+00
0.000000000000000000e+00
0.000000000000000000e+00
0.000000000000000000e+00
0.000000000000000000e+00
0.000000000000000000e+00
0.000000000000000000e+00
0.000000000000000000e+00
0.000000000000000000e+00
0.000000000000000000e+00
0.000000000000000000e+00
0.000000000000000000e+00
0.000000000000000000e+00
0.000000000000000000e+00
0.000000000000000000e+00
0.000000000000000000e+00
0.000000000000000000e+00
0.000000000000000000e+00
0.000000000000000000e+00
0.000000000000000000e+00
0.000000000000000000e+00
0.000000000000000000e+00
0.000000000000000000e+00
0.000000000000000000e+00
0.000000000000000000e+00
0.000000000000000000e+00
0.000000000000000000e+00
0.000000000000000000e+00
0.000000000000000000e+00
0.000000000000000000e+00
0.000000000000000000e+00
0.000000000000000000e+00
0.000000000000000000e+00
0.000000000000000000e+00
0.000000000000000000e+00
0.000000000000000000e+00
0.000000000000000000e+00
0.000000000000000000e+00
0.000000000000000000e+00
0.000000000000000000e+00
0.000000000000000000e+00
0.000000000000000000e+00
0.000000000000000000e+00
0.000000000000000000e+00
0.000000000000000000e+00
0.000000000000000000e+00
0.000000000000000000e+00
0.000000000000000000e+00
0.000000000000000000e+00
0.000000000000000000e+00
0.000000000000000000e+00
0.000000000000000000e+00
0.000000000000000000e+00
0.000000000000000000e+00
0.000000000000000000e+00
