0.000000000000000000e+00
0.000000000000000000e+00
0.000000000000000000e+00
0.000000000000000000e+00
0.000000000000000000e+00
0.000000000000000000e+00
0.000000000000000000e+00
0.000000000000000000e+00
0.000000000000000000e+00
0.000000000000000000e+00
0.000000000000000000e+00
0.000000000000000000e+00
0.000000000000000000e+00
0.000000000000000000e+00
0.000000000000000000e+00
0.000000000000000000e+00
0.000000000000000000e+00
0.000000000000000000e+00
0.000000000000000000e+00
0.000000000000000000e+00
0.000000000000000000e+00
0.000000000000000000e+00
0.000000000000000000e+00
0.000000000000000000e+00
0.000000000000000000e+00
0.000000000000000000e+00
0.000000000000000000e+00
0.000000000000000000e+00
0.000000000000000000e+00
0.000000000000000000e+00
0.000000000000000000e+00
0.000000000000000000e+00
0.000000000000000000e+00
0.000000000000000000e+00
0.000000000000000000e+00
0.000000000000000000e+00
0.000000000000000000e+00
0.000000000000000000e+00
0.000000000000000000e+00
0.000000000000000000e+00
0.000000000000000000e+00
0.000000000000000000e+00
0.000000000000000000e+00
0.000000000000000000e+00
0.000000000000000000e+00
0.000000000000000000e+00
0.000000000000000000e+00
0.000000000000000000e+00
0.000000000000000000e+00
0.000000000000000000e+00
0.000000000000000000e+00
0.000000000000000000e+00
0.000000000000000000e+00
0.000000000000000000e+00
0.000000000000000000e+00
0.000000000000000000e+00
0.000000000000000000e+00
0.000000000000000000e+00
0.000000000000000000e+00
0.000000000000000000e+00
0.000000000000000000e+00
0.000000000000000000e+00
0.000000000000000000e+00
0.000000000000000000e+00
0.000000000000000000e+00
0.000000000000000000e+00
0.000000000000000000e+00
0.000000000000000000e+00
0.000000000000000000e+00
0.000000000000000000e+00
0.000000000000000000e+00
0.000000000000000000e+00
0.000000000000000000e+00
0.000000000000000000e+00
0.000000000000000000e+00
0.000000000000000000e+00
0.000000000000000000e+00
0.000000000000000000e+00
0.000000000000000000e+00
1.468001348708408784e+02
1.488454350305061666e+02
1.414693802564956400e+02
1.353899276405167598e+02
1.334143246603750015e+02
1.325444127734410529e+02
1.320607269588886936e+02
1.316028384796705097e+02
1.309639984519680240e+02
1.294534058998031298e+02
1.271372241067015381e+02
1.289382009588905191e+02
1.292698330758060195e+02
1.285632733446081204e+02
1.277490515026453011e+02
1.272236423111758370e+02
1.294475418541754266e+02
1.370608690939952510e+02
1.402414087660215216e+02
1.425609229578535349e+02
1.426449689574289721e+02
1.434257730484200408e+02
1.440977081375072544e+02
1.450037526828022578e+02
1.459990115808369069e+02
1.469109863214680445e+02
1.476881670097279482e+02
1.484095072010257184e+02
1.492396546742421606e+02
1.505309109380118002e+02
1.527400923257951320e+02
1.557130405578606656e+02
1.588903161400712349e+02
1.607299988217572775e+02
1.592118079644526745e+02
1.533936987247033699e+02
1.435020489964781234e+02
1.389077364430090711e+02
1.415764763928430057e+02
1.474757826317047034e+02
1.540285072511125293e+02
0.000000000000000000e+00
0.000000000000000000e+00
0.000000000000000000e+00
0.000000000000000000e+00
0.000000000000000000e+00
0.000000000000000000e+00
0.000000000000000000e+00
0.000000000000000000e+00
0.000000000000000000e+00
0.000000000000000000e+00
0.000000000000000000e+00
1.674285249422779600e+02
1.633788001878894249e+02
1.626072639291757014e+02
1.627734334278929396e+02
1.628994536375215034e+02
1.626903274631515899e+02
1.622034871919690602e+02
1.615095700035103334e+02
1.605716577786595849e+02
1.602909043324558809e+02
1.608498349750161367e+02
1.611072130172265418e+02
1.613075353415275686e+02
1.613857023802335959e+02
1.620716681561017367e+02
1.643820131599161698e+02
1.661240015346902794e+02
1.659295655883100835e+02
1.652763626049564323e+02
1.649755040993285888e+02
1.648176174660492279e+02
1.646880715739937671e+02
1.645806783964874853e+02
1.642813996114428789e+02
1.638223695408424874e+02
1.633516914683413290e+02
1.627239216826882853e+02
1.619880708227188677e+02
1.614328055290369264e+02
1.610849362048816147e+02
1.610224239530570571e+02
1.613214579965754467e+02
1.618706284389563734e+02
1.626843541597186231e+02
1.637324039375961320e+02
1.647567205665711469e+02
1.656946623918450996e+02
1.664546529448497552e+02
1.671846436510647322e+02
1.678781259904361036e+02
1.683959693954889190e+02
1.688680562545706607e+02
1.693656928015080041e+02
1.698443046123229010e+02
1.703373453652637295e+02
1.704879997166476642e+02
1.701461721457075953e+02
1.694030887425790013e+02
1.683689916116524614e+02
1.672034585943894456e+02
1.659590804886750277e+02
1.647799765971780346e+02
1.638600260659744663e+02
1.630608676723700512e+02
1.622676185813922984e+02
1.614049422019179474e+02
1.604512637795749583e+02
1.593715438187580844e+02
1.581684071951383430e+02
1.570859961865294849e+02
1.562631612924053002e+02
1.560176879676417059e+02
1.562656202104497254e+02
1.563448478774148782e+02
1.553554935744701027e+02
1.537697524236255902e+02
1.523497745680518847e+02
1.510348497199835833e+02
1.496346330096649524e+02
1.483306227813135934e+02
1.472472027102003267e+02
1.461499512232821019e+02
1.444958197415068355e+02
1.390351673985710477e+02
1.341636014242033355e+02
1.319828542294775389e+02
1.312607772450048742e+02
1.308114632146784970e+02
1.307164994091054098e+02
1.311826255897001090e+02
1.323945190084593548e+02
1.346652629821851690e+02
1.367348709594584193e+02
1.385544841614668030e+02
1.402761197923512100e+02
1.421723454449847850e+02
1.442775686402819986e+02
1.452811435228222479e+02
1.455624660392649616e+02
1.457578462300058675e+02
1.459919107426355822e+02
1.463043955167356955e+02
1.465971360552179306e+02
1.468223964820143408e+02
1.470045363382289736e+02
1.472333012047939746e+02
1.474574297492402764e+02
1.478236529425432479e+02
1.485577676566070977e+02
1.478129391836017135e+02
1.423755307039027116e+02
1.383944940178147647e+02
1.388745559849772917e+02
1.369804398161979577e+02
1.363364919949180774e+02
1.375737576519995855e+02
1.403705986740690435e+02
1.433190548287464310e+02
1.448897113088551976e+02
1.477273979449945500e+02
1.503431831524108304e+02
1.508608799986756424e+02
1.514755276246212645e+02
1.559846600702810520e+02
0.000000000000000000e+00
0.000000000000000000e+00
0.000000000000000000e+00
0.000000000000000000e+00
0.000000000000000000e+00
0.000000000000000000e+00
0.000000000000000000e+00
0.000000000000000000e+00
0.000000000000000000e+00
0.000000000000000000e+00
0.000000000000000000e+00
0.000000000000000000e+00
0.000000000000000000e+00
0.000000000000000000e+00
0.000000000000000000e+00
0.000000000000000000e+00
1.566926419577697231e+02
1.489135156533532154e+02
1.440010639845868070e+02
1.423715931416320757e+02
1.410085184434913401e+02
1.392158117461821973e+02
1.378732861247735855e+02
1.363362969641413827e+02
1.348033925881299240e+02
1.335214348887251674e+02
1.323368301882556466e+02
1.311321552314450685e+02
1.299946559493629650e+02
1.290070797782510112e+02
1.282960219579156558e+02
1.279412625126793159e+02
1.277315090447495436e+02
1.268195288734090269e+02
1.251702027126612506e+02
1.252793559271650849e+02
1.280883742520043995e+02
1.297078523391914189e+02
1.293564672201895860e+02
1.285670742330388521e+02
1.276124910898965084e+02
1.265839062022867836e+02
1.256107411413655228e+02
1.247295439976456208e+02
1.239179146389658115e+02
1.230782858800824329e+02
1.222013352523315746e+02
1.213411630835120434e+02
1.211541881264269733e+02
1.215321933563931935e+02
1.201317086261686740e+02
1.174786950176260660e+02
1.159731330932926596e+02
1.158090074499540520e+02
1.155592318065182837e+02
1.151225416921034395e+02
1.145764857343232563e+02
1.141038383281249793e+02
1.139750706472249249e+02
1.143094170859743173e+02
1.148309814759383016e+02
1.153143936876724212e+02
1.157258729144401741e+02
1.161156188218182734e+02
1.165036218608427845e+02
1.169742169766434898e+02
1.174399368132250743e+02
1.177195958928170541e+02
1.180534990260960200e+02
1.187726190923145282e+02
1.197646837398669106e+02
1.207143127881376330e+02
1.218113159736266624e+02
1.230886154543358657e+02
1.245207214545319800e+02
1.261826070124056116e+02
1.286179065871847911e+02
1.318175663975306122e+02
1.341679517396820245e+02
1.339207196156307873e+02
1.317232540266176386e+02
1.302172530958530956e+02
1.291667493747891058e+02
1.290462710202770893e+02
0.000000000000000000e+00
0.000000000000000000e+00
0.000000000000000000e+00
0.000000000000000000e+00
0.000000000000000000e+00
1.329764063702595820e+02
1.485637181563336071e+02
1.479001520044162987e+02
1.457845377323692730e+02
1.425752671103168723e+02
1.378325314237230543e+02
1.315964378167293205e+02
1.266439785624720287e+02
1.235047479448119390e+02
1.217505170344313399e+02
1.208703464831113195e+02
1.205374422003887247e+02
1.202824007578780936e+02
1.198509482520901912e+02
1.188077381061938809e+02
1.137799670852506182e+02
1.122804129993800331e+02
1.176633078774558925e+02
1.227400027546051859e+02
1.245862899336458867e+02
1.304258642881325727e+02
1.439530751069657128e+02
0.000000000000000000e+00
0.000000000000000000e+00
0.000000000000000000e+00
0.000000000000000000e+00
0.000000000000000000e+00
0.000000000000000000e+00
0.000000000000000000e+00
0.000000000000000000e+00
1.073299059174314181e+02
1.036553556933017717e+02
1.033562127977751288e+02
1.036458661964567654e+02
1.038397328847482584e+02
1.038406241521496298e+02
1.037171080602194451e+02
1.033504467209343858e+02
1.023604748693239799e+02
1.009907138220182219e+02
9.982013352915528515e+01
9.771534592601464908e+01
9.207164134281485701e+01
8.746880313769479187e+01
8.690290724916775389e+01
8.788805630481884634e+01
9.141195603478487897e+01
0.000000000000000000e+00
0.000000000000000000e+00
0.000000000000000000e+00
0.000000000000000000e+00
0.000000000000000000e+00
0.000000000000000000e+00
0.000000000000000000e+00
0.000000000000000000e+00
0.000000000000000000e+00
0.000000000000000000e+00
1.607741506974818151e+02
1.474378136763961606e+02
1.423389427264136771e+02
1.377970452094287452e+02
0.000000000000000000e+00
0.000000000000000000e+00
0.000000000000000000e+00
0.000000000000000000e+00
0.000000000000000000e+00
0.000000000000000000e+00
0.000000000000000000e+00
0.000000000000000000e+00
0.000000000000000000e+00
0.000000000000000000e+00
0.000000000000000000e+00
0.000000000000000000e+00
0.000000000000000000e+00
0.000000000000000000e+00
0.000000000000000000e+00
0.000000000000000000e+00
0.000000000000000000e+00
0.000000000000000000e+00
0.000000000000000000e+00
0.000000000000000000e+00
0.000000000000000000e+00
0.000000000000000000e+00
0.000000000000000000e+00
0.000000000000000000e+00
0.000000000000000000e+00
0.000000000000000000e+00
0.000000000000000000e+00
0.000000000000000000e+00
0.000000000000000000e+00
0.000000000000000000e+00
0.000000000000000000e+00
0.000000000000000000e+00
0.000000000000000000e+00
0.000000000000000000e+00
0.000000000000000000e+00
0.000000000000000000e+00
0.000000000000000000e+00
0.000000000000000000e+00
0.000000000000000000e+00
0.000000000000000000e+00
0.000000000000000000e+00
0.000000000000000000e+00
0.000000000000000000e+00
0.000000000000000000e+00
0.000000000000000000e+00
0.000000000000000000e+00
0.000000000000000000e+00
0.000000000000000000e+00
0.000000000000000000e+00
0.000000000000000000e+00
0.000000000000000000e+00
0.000000000000000000e+00
0.000000000000000000e+00
0.000000000000000000e+00
0.000000000000000000e+00
0.000000000000000000e+00
0.000000000000000000e+00
0.000000000000000000e+00
0.000000000000000000e+00
0.000000000000000000e+00
0.000000000000000000e+00
0.000000000000000000e+00
0.000000000000000000e+00
0.000000000000000000e+00
0.000000000000000000e+00
0.000000000000000000e+00
0.000000000000000000e+00
0.000000000000000000e+00
0.000000000000000000e+00
0.000000000000000000e+00
0.000000000000000000e+00
0.000000000000000000e+00
0.000000000000000000e+00
0.000000000000000000e+00
0.000000000000000000e+00
0.000000000000000000e+00
0.000000000000000000e+00
0.000000000000000000e+00
0.000000000000000000e+00
0.000000000000000000e+00
0.000000000000000000e+00
0.000000000000000000e+00
0.000000000000000000e+00
0.000000000000000000e+00
0.000000000000000000e+00
0.000000000000000000e+00
0.000000000000000000e+00
0.000000000000000000e+00
0.000000000000000000e+00
0.000000000000000000e+00
0.000000000000000000e+00
0.000000000000000000e+00
0.000000000000000000e+00
0.000000000000000000e+00
0.000000000000000000e+00
0.000000000000000000e+00
0.000000000000000000e+00
0.000000000000000000e+00
0.000000000000000000e+00
0.000000000000000000e+00
0.000000000000000000e+00
0.000000000000000000e+00
0.000000000000000000e+00
0.000000000000000000e+00
0.000000000000000000e+00
0.000000000000000000e+00
0.000000000000000000e+00
0.000000000000000000e+00
0.000000000000000000e+00
0.000000000000000000e+00
0.000000000000000000e+00
0.000000000000000000e+00
0.000000000000000000e+00
0.000000000000000000e+00
0.000000000000000000e+00
0.000000000000000000e+00
0.000000000000000000e+00
0.000000000000000000e+00
0.000000000000000000e+00
0.000000000000000000e+00
0.000000000000000000e+00
0.000000000000000000e+00
0.000000000000000000e+00
0.000000000000000000e+00
0.000000000000000000e+00
0.000000000000000000e+00
0.000000000000000000e+00
0.000000000000000000e+00
0.000000000000000000e+00
0.000000000000000000e+00
0.000000000000000000e+00
0.000000000000000000e+00
0.000000000000000000e+00
0.000000000000000000e+00
0.000000000000000000e+00
0.000000000000000000e+00
0.000000000000000000e+00
0.000000000000000000e+00
0.000000000000000000e+00
0.000000000000000000e+00
0.000000000000000000e+00
0.000000000000000000e+00
0.000000000000000000e+00
0.000000000000000000e+00
0.000000000000000000e+00
0.000000000000000000e+00
0.000000000000000000e+00
0.000000000000000000e+00
0.000000000000000000e+00
0.000000000000000000e+00
0.000000000000000000e+00
0.000000000000000000e+00
0.000000000000000000e+00
1.346323255360150881e+02
1.370624376401381994e+02
1.399415399971464353e+02
1.387715550272698408e+02
1.380399798434211505e+02
1.354928737227715203e+02
1.361224512307660461e+02
0.000000000000000000e+00
0.000000000000000000e+00
0.000000000000000000e+00
0.000000000000000000e+00
1.185505903594923041e+02
1.198515197473084726e+02
1.203057465562869623e+02
1.209589069967841510e+02
1.214223098903322438e+02
1.218710411290005737e+02
1.222747193807921775e+02
1.227005618988273312e+02
1.233079711833062220e+02
1.239430298669164898e+02
1.247679712059612456e+02
1.256648387568799023e+02
1.264088026055056844e+02
1.276497978235023254e+02
1.293171817718431953e+02
1.301366200109949887e+02
1.268558174225316861e+02
1.197116990063897362e+02
1.185553389180270898e+02
0.000000000000000000e+00
0.000000000000000000e+00
0.000000000000000000e+00
0.000000000000000000e+00
0.000000000000000000e+00
0.000000000000000000e+00
0.000000000000000000e+00
0.000000000000000000e+00
0.000000000000000000e+00
0.000000000000000000e+00
0.000000000000000000e+00
0.000000000000000000e+00
0.000000000000000000e+00
0.000000000000000000e+00
0.000000000000000000e+00
0.000000000000000000e+00
0.000000000000000000e+00
0.000000000000000000e+00
0.000000000000000000e+00
0.000000000000000000e+00
0.000000000000000000e+00
0.000000000000000000e+00
0.000000000000000000e+00
0.000000000000000000e+00
0.000000000000000000e+00
0.000000000000000000e+00
1.575549223601285007e+02
1.515061558846067840e+02
1.493380343699738546e+02
1.503002474439588809e+02
1.513274580345091351e+02
1.518415932508647757e+02
1.515164870952031890e+02
1.505250969730159909e+02
1.499323211729547154e+02
1.492017296080175299e+02
1.480692247634719649e+02
1.481516436211619236e+02
1.472463601573585663e+02
1.466848205822968794e+02
1.470416925625960971e+02
1.472550667692131867e+02
1.474551094324981477e+02
1.477302860916441887e+02
1.480922437526872955e+02
1.484742732873269517e+02
1.487808617602258323e+02
1.489343223036054269e+02
1.489689118026874723e+02
1.489501600300787061e+02
1.488391893585323942e+02
1.485028076432645889e+02
1.473808785716082923e+02
1.459063797489958461e+02
1.463009771514335853e+02
1.489941309761030936e+02
1.498851430178346504e+02
1.497005761861306041e+02
1.496476195194472893e+02
1.497809033766319544e+02
1.503808247023078479e+02
1.511172619645885504e+02
1.508509531471744083e+02
1.501923530622176770e+02
1.506758301323712317e+02
1.521515799258950210e+02
1.542606260720329487e+02
1.569500286015906170e+02
1.593596891529253980e+02
1.600123203602298076e+02
1.567256702965605371e+02
1.522926128658727407e+02
1.482144596358928652e+02
1.470083216371318997e+02
0.000000000000000000e+00
0.000000000000000000e+00
0.000000000000000000e+00
0.000000000000000000e+00
0.000000000000000000e+00
0.000000000000000000e+00
0.000000000000000000e+00
0.000000000000000000e+00
0.000000000000000000e+00
0.000000000000000000e+00
0.000000000000000000e+00
1.762985622399316128e+02
1.698481920844376418e+02
1.639020678458639395e+02
1.592697440180821218e+02
1.576837444590634902e+02
1.561411581545212925e+02
1.545683280822701420e+02
1.530430098954610401e+02
1.518347874542936324e+02
1.509909245011687631e+02
1.503266955368185620e+02
1.496957936151069077e+02
1.490054277084830403e+02
1.490761405501973513e+02
1.505295471482856442e+02
1.529059482866777557e+02
1.542935096441686085e+02
1.552282034816807368e+02
1.560595779927043623e+02
1.563034775285828459e+02
1.563646051494060885e+02
1.565247684151992189e+02
1.566939868672752993e+02
1.568256196708756249e+02
1.569263062395598070e+02
1.568251709898205775e+02
1.564937971970173294e+02
1.560244580623425747e+02
1.552521133227722885e+02
1.542701152424929205e+02
1.517912086272973227e+02
1.484109225511279249e+02
1.473807380183166913e+02
1.468673500227647537e+02
1.462545232077991386e+02
1.463937198900023589e+02
1.485797290174911041e+02
1.522433852932043123e+02
1.543520111705504121e+02
1.542434881968215450e+02
1.523869738779801537e+02
1.512766669373498587e+02
1.504227075180697568e+02
1.501708694104394226e+02
1.500678622088039162e+02
0.000000000000000000e+00
0.000000000000000000e+00
0.000000000000000000e+00
0.000000000000000000e+00
0.000000000000000000e+00
0.000000000000000000e+00
0.000000000000000000e+00
1.348213276965170166e+02
1.298348296734520488e+02
1.280220614794945959e+02
1.267338686183162366e+02
1.254408118157854091e+02
1.245000602836092156e+02
1.237958385361457943e+02
1.229197535923315030e+02
1.219388774536074180e+02
1.212310476847288925e+02
1.200089560693049719e+02
1.185005724599833883e+02
1.192828055107422784e+02
1.221852537526434190e+02
1.233320806472192857e+02
1.232588259998108384e+02
1.229466011432055694e+02
1.226054059945952588e+02
1.223095324981498209e+02
1.220709380355489060e+02
1.217558001695741581e+02
1.213454447972317212e+02
1.211691516924759071e+02
1.214284473043721420e+02
1.214233520708502283e+02
1.203678328540721054e+02
1.193985524485018033e+02
1.191480796688063890e+02
1.192094548413216870e+02
1.194104521777359196e+02
1.196271319047563537e+02
1.196473837636725079e+02
1.196280445908239187e+02
1.197362472071188932e+02
1.197897568864606939e+02
1.198086651671993224e+02
1.199320134840781122e+02
1.201321096096757515e+02
1.202922662427597089e+02
1.203360397497460923e+02
1.205874573303323700e+02
1.212291978598575213e+02
1.219790040960136395e+02
1.225662421660147885e+02
1.230698937392953241e+02
1.236296024245727949e+02
1.242000291361379851e+02
1.245841512865941496e+02
1.248404559509227738e+02
1.252459669180133233e+02
1.258729390495272469e+02
1.265186136244532094e+02
1.268633183506538984e+02
1.267414832056995522e+02
1.262509770076264459e+02
1.254951354500660869e+02
1.244253405994138859e+02
1.232125792342824440e+02
1.218572692113023948e+02
1.210240426530352096e+02
1.206812197099256423e+02
1.203626099445521476e+02
1.212523226996234769e+02
1.241294551535882817e+02
1.269784285022833359e+02
1.284581191438391841e+02
1.285662772632509245e+02
1.279678033745867651e+02
1.271370422355736878e+02
1.264111534075181851e+02
1.259487682709505663e+02
1.257954159361913469e+02
1.257515153624987363e+02
1.255710963337817674e+02
1.252899897161078400e+02
1.249914521137733203e+02
1.246308534310775116e+02
1.242029903308851289e+02
1.238176817316465161e+02
1.234751289955165561e+02
1.229024054556782204e+02
1.217353075298382379e+02
1.212310476847288925e+02
1.228117778272798404e+02
1.252908261198166997e+02
1.259217454965497325e+02
1.256233798054859818e+02
1.252660948259155731e+02
1.249323423307279910e+02
1.246924961513593075e+02
1.245285593473158627e+02
1.243313370852761182e+02
1.239715196502849039e+02
1.234442221612288364e+02
1.229676495020670330e+02
1.226810802192319585e+02
1.228110750946607794e+02
1.239407249633048167e+02
1.251752761087948898e+02
1.245990631734661633e+02
1.228702944215790183e+02
1.227726651624539045e+02
1.233103231186384647e+02
1.234644137500905003e+02
1.236047275259276290e+02
1.238708299195376981e+02
1.242616957798353781e+02
1.245897950179247573e+02
1.242372268680154832e+02
1.229328835396756148e+02
1.224515116092301810e+02
1.239387746937276660e+02
1.265361101792537539e+02
1.256116994789228158e+02
1.256014576247699210e+02
0.000000000000000000e+00
0.000000000000000000e+00
0.000000000000000000e+00
0.000000000000000000e+00
0.000000000000000000e+00
0.000000000000000000e+00
0.000000000000000000e+00
0.000000000000000000e+00
0.000000000000000000e+00
0.000000000000000000e+00
0.000000000000000000e+00
0.000000000000000000e+00
0.000000000000000000e+00
0.000000000000000000e+00
0.000000000000000000e+00
0.000000000000000000e+00
0.000000000000000000e+00
0.000000000000000000e+00
0.000000000000000000e+00
1.354091030059570357e+02
1.338519618022846771e+02
1.333604520195801513e+02
1.317253896023611333e+02
1.296102905005421064e+02
1.275095737738570136e+02
1.255100366798736786e+02
1.244302058058468532e+02
1.237489772258146559e+02
1.229257908493048603e+02
1.216992651093307387e+02
1.201117757046743577e+02
1.184631152504812803e+02
1.170370394779304206e+02
1.160829008013340484e+02
1.157456298986277403e+02
1.158269007724492212e+02
1.161091962834077691e+02
1.165934305199214833e+02
1.170799075707830070e+02
1.174315371547644133e+02
1.177495186254951420e+02
1.179946319673657626e+02
1.171460825048971515e+02
1.158059702776903634e+02
1.150439593059381167e+02
1.152176585945072844e+02
0.000000000000000000e+00
0.000000000000000000e+00
0.000000000000000000e+00
0.000000000000000000e+00
0.000000000000000000e+00
0.000000000000000000e+00
0.000000000000000000e+00
0.000000000000000000e+00
0.000000000000000000e+00
0.000000000000000000e+00
0.000000000000000000e+00
0.000000000000000000e+00
0.000000000000000000e+00
0.000000000000000000e+00
0.000000000000000000e+00
0.000000000000000000e+00
0.000000000000000000e+00
0.000000000000000000e+00
0.000000000000000000e+00
0.000000000000000000e+00
0.000000000000000000e+00
0.000000000000000000e+00
0.000000000000000000e+00
0.000000000000000000e+00
0.000000000000000000e+00
0.000000000000000000e+00
0.000000000000000000e+00
0.000000000000000000e+00
0.000000000000000000e+00
0.000000000000000000e+00
0.000000000000000000e+00
0.000000000000000000e+00
0.000000000000000000e+00
0.000000000000000000e+00
0.000000000000000000e+00
0.000000000000000000e+00
0.000000000000000000e+00
0.000000000000000000e+00
0.000000000000000000e+00
0.000000000000000000e+00
0.000000000000000000e+00
0.000000000000000000e+00
0.000000000000000000e+00
0.000000000000000000e+00
0.000000000000000000e+00
0.000000000000000000e+00
0.000000000000000000e+00
0.000000000000000000e+00
0.000000000000000000e+00
0.000000000000000000e+00
0.000000000000000000e+00
0.000000000000000000e+00
0.000000000000000000e+00
0.000000000000000000e+00
0.000000000000000000e+00
0.000000000000000000e+00
0.000000000000000000e+00
0.000000000000000000e+00
0.000000000000000000e+00
0.000000000000000000e+00
0.000000000000000000e+00
0.000000000000000000e+00
0.000000000000000000e+00
0.000000000000000000e+00
0.000000000000000000e+00
0.000000000000000000e+00
0.000000000000000000e+00
0.000000000000000000e+00
0.000000000000000000e+00
0.000000000000000000e+00
0.000000000000000000e+00
0.000000000000000000e+00
0.000000000000000000e+00
0.000000000000000000e+00
0.000000000000000000e+00
0.000000000000000000e+00
0.000000000000000000e+00
0.000000000000000000e+00
0.000000000000000000e+00
0.000000000000000000e+00
0.000000000000000000e+00
0.000000000000000000e+00
0.000000000000000000e+00
0.000000000000000000e+00
0.000000000000000000e+00
0.000000000000000000e+00
0.000000000000000000e+00
0.000000000000000000e+00
0.000000000000000000e+00
0.000000000000000000e+00
0.000000000000000000e+00
0.000000000000000000e+00
0.000000000000000000e+00
0.000000000000000000e+00
0.000000000000000000e+00
0.000000000000000000e+00
0.000000000000000000e+00
0.000000000000000000e+00
0.000000000000000000e+00
0.000000000000000000e+00
0.000000000000000000e+00
0.000000000000000000e+00
0.000000000000000000e+00
0.000000000000000000e+00
0.000000000000000000e+00
0.000000000000000000e+00
0.000000000000000000e+00
0.000000000000000000e+00
0.000000000000000000e+00
