0.000000000000000000e+00
0.000000000000000000e+00
0.000000000000000000e+00
0.000000000000000000e+00
0.000000000000000000e+00
0.000000000000000000e+00
0.000000000000000000e+00
0.000000000000000000e+00
0.000000000000000000e+00
0.000000000000000000e+00
0.000000000000000000e+00
0.000000000000000000e+00
0.000000000000000000e+00
0.000000000000000000e+00
0.000000000000000000e+00
0.000000000000000000e+00
0.000000000000000000e+00
0.000000000000000000e+00
0.000000000000000000e+00
0.000000000000000000e+00
0.000000000000000000e+00
0.000000000000000000e+00
0.000000000000000000e+00
0.000000000000000000e+00
0.000000000000000000e+00
0.000000000000000000e+00
0.000000000000000000e+00
0.000000000000000000e+00
0.000000000000000000e+00
0.000000000000000000e+00
0.000000000000000000e+00
0.000000000000000000e+00
0.000000000000000000e+00
0.000000000000000000e+00
0.000000000000000000e+00
0.000000000000000000e+00
0.000000000000000000e+00
0.000000000000000000e+00
0.000000000000000000e+00
0.000000000000000000e+00
0.000000000000000000e+00
0.000000000000000000e+00
0.000000000000000000e+00
0.000000000000000000e+00
0.000000000000000000e+00
0.000000000000000000e+00
0.000000000000000000e+00
0.000000000000000000e+00
0.000000000000000000e+00
0.000000000000000000e+00
0.000000000000000000e+00
0.000000000000000000e+00
0.000000000000000000e+00
0.000000000000000000e+00
0.000000000000000000e+00
0.000000000000000000e+00
0.000000000000000000e+00
0.000000000000000000e+00
0.000000000000000000e+00
0.000000000000000000e+00
0.000000000000000000e+00
0.000000000000000000e+00
0.000000000000000000e+00
0.000000000000000000e+00
0.000000000000000000e+00
0.000000000000000000e+00
0.000000000000000000e+00
0.000000000000000000e+00
0.000000000000000000e+00
0.000000000000000000e+00
0.000000000000000000e+00
0.000000000000000000e+00
0.000000000000000000e+00
0.000000000000000000e+00
0.000000000000000000e+00
0.000000000000000000e+00
0.000000000000000000e+00
0.000000000000000000e+00
0.000000000000000000e+00
1.707453298521898830e+02
1.591131450097371669e+02
1.541583419341239392e+02
1.531658057634593888e+02
1.539925960918707801e+02
1.553764594230506759e+02
1.569489060115210464e+02
1.586215785957358264e+02
1.592359517526463719e+02
1.587406753908955750e+02
1.570519183632340230e+02
1.574837921660398763e+02
1.582724463685842977e+02
1.588948620935101701e+02
1.594226961724436364e+02
1.598520184879835426e+02
1.603660552479585419e+02
1.616562707954929579e+02
1.633275466844527557e+02
1.633340887895019193e+02
1.642870398625166786e+02
1.651448024423002039e+02
1.640311518888467219e+02
1.622416225866338664e+02
1.611540811956141397e+02
1.601656801438365960e+02
1.590469233587374447e+02
1.580766469841151434e+02
1.572750188191989764e+02
1.564347822797791707e+02
1.555147715240985633e+02
1.544635566295515616e+02
1.532645080367392723e+02
1.519729179413226348e+02
1.506351697451185316e+02
1.491755505712037291e+02
1.474322597785861433e+02
1.453343568096419460e+02
1.425228601666011343e+02
1.396285962426107972e+02
1.377039701905532354e+02
1.381370364481057607e+02
1.369852733863862113e+02
1.337642941648064436e+02
1.305419037681866996e+02
1.289235689481511997e+02
1.285027195086817073e+02
1.315447419145464778e+02
1.344961669236984392e+02
1.359688352558764564e+02
1.364901328420629909e+02
1.368557404457787072e+02
1.371722150805249214e+02
1.373578399463921471e+02
1.371586761252099222e+02
1.365256079954898780e+02
1.356146499555526077e+02
1.346714276098068979e+02
1.338456432181066873e+02
1.332070311341886963e+02
1.328985640263765049e+02
1.327737818258391087e+02
1.326482945130063058e+02
1.325343640203010693e+02
1.324472435770260290e+02
1.322305441389471525e+02
1.320883113395998123e+02
1.321408509548612074e+02
1.322589207799242388e+02
1.325732360650751502e+02
1.330980787208647769e+02
1.334579729973960696e+02
1.336276753263157104e+02
1.336819746376285707e+02
1.334966703407485795e+02
1.328929241294013934e+02
1.310453316449909664e+02
1.264057285457598709e+02
1.225847703582541186e+02
1.213467756309218402e+02
1.200712327282102336e+02
1.191695573839558051e+02
1.200879521843777411e+02
1.243260014776360407e+02
1.289800158549726348e+02
1.331948362244975783e+02
1.385910245422844866e+02
1.414092206428390739e+02
0.000000000000000000e+00
0.000000000000000000e+00
0.000000000000000000e+00
0.000000000000000000e+00
0.000000000000000000e+00
0.000000000000000000e+00
0.000000000000000000e+00
0.000000000000000000e+00
0.000000000000000000e+00
0.000000000000000000e+00
0.000000000000000000e+00
0.000000000000000000e+00
1.322902682803313610e+02
1.301693265656758172e+02
1.286361841652800422e+02
1.279394323113289715e+02
1.272951257088609225e+02
1.266279766064787395e+02
1.260102216232947683e+02
1.255817548858300370e+02
1.253964968486808402e+02
1.254111471631818802e+02
1.256557309939267668e+02
1.257917569697582536e+02
1.255483451484832926e+02
1.254752698956378083e+02
1.254931607210589704e+02
1.254293877015403069e+02
1.252463849722276166e+02
1.248100405582652570e+02
1.241717828874577521e+02
1.237184147991481211e+02
1.237751205799731196e+02
1.239359379927616800e+02
1.240337825615432337e+02
1.242502013082852272e+02
1.246067871630800141e+02
1.249989620110459754e+02
1.253574576347958214e+02
1.257256140164094802e+02
1.261232947607029047e+02
1.264514252144953019e+02
1.266026191574561182e+02
1.262922817566307003e+02
1.250245944232149640e+02
1.235074569905622184e+02
1.239119468273805609e+02
1.274527980009751502e+02
1.289125038243379038e+02
1.283710460421036430e+02
1.278190016344609603e+02
1.278502722187659373e+02
1.305891579666647715e+02
1.307845196587985015e+02
1.300918247516950146e+02
1.269318150747973988e+02
1.255901985383214736e+02
1.256829963329401352e+02
1.256321856927352343e+02
1.256237991194537926e+02
1.256921660068171178e+02
1.258765403547171502e+02
1.261279256467734484e+02
1.263902388331555784e+02
1.265668255002291573e+02
1.265291112669955425e+02
1.261945811231046122e+02
1.255809165399686123e+02
1.246602740709597299e+02
1.232875112386560659e+02
1.212935536662351268e+02
1.188533516751972030e+02
1.171613331697008533e+02
1.193632018758318196e+02
0.000000000000000000e+00
0.000000000000000000e+00
0.000000000000000000e+00
0.000000000000000000e+00
0.000000000000000000e+00
0.000000000000000000e+00
0.000000000000000000e+00
0.000000000000000000e+00
0.000000000000000000e+00
0.000000000000000000e+00
0.000000000000000000e+00
0.000000000000000000e+00
0.000000000000000000e+00
0.000000000000000000e+00
0.000000000000000000e+00
0.000000000000000000e+00
0.000000000000000000e+00
0.000000000000000000e+00
0.000000000000000000e+00
0.000000000000000000e+00
0.000000000000000000e+00
0.000000000000000000e+00
0.000000000000000000e+00
0.000000000000000000e+00
0.000000000000000000e+00
0.000000000000000000e+00
0.000000000000000000e+00
0.000000000000000000e+00
0.000000000000000000e+00
0.000000000000000000e+00
0.000000000000000000e+00
0.000000000000000000e+00
0.000000000000000000e+00
0.000000000000000000e+00
0.000000000000000000e+00
0.000000000000000000e+00
0.000000000000000000e+00
0.000000000000000000e+00
0.000000000000000000e+00
0.000000000000000000e+00
0.000000000000000000e+00
0.000000000000000000e+00
0.000000000000000000e+00
0.000000000000000000e+00
0.000000000000000000e+00
0.000000000000000000e+00
0.000000000000000000e+00
0.000000000000000000e+00
0.000000000000000000e+00
0.000000000000000000e+00
0.000000000000000000e+00
0.000000000000000000e+00
0.000000000000000000e+00
0.000000000000000000e+00
0.000000000000000000e+00
0.000000000000000000e+00
0.000000000000000000e+00
0.000000000000000000e+00
0.000000000000000000e+00
0.000000000000000000e+00
0.000000000000000000e+00
0.000000000000000000e+00
0.000000000000000000e+00
0.000000000000000000e+00
0.000000000000000000e+00
0.000000000000000000e+00
0.000000000000000000e+00
0.000000000000000000e+00
0.000000000000000000e+00
0.000000000000000000e+00
0.000000000000000000e+00
0.000000000000000000e+00
0.000000000000000000e+00
0.000000000000000000e+00
0.000000000000000000e+00
0.000000000000000000e+00
0.000000000000000000e+00
0.000000000000000000e+00
0.000000000000000000e+00
0.000000000000000000e+00
0.000000000000000000e+00
0.000000000000000000e+00
0.000000000000000000e+00
0.000000000000000000e+00
0.000000000000000000e+00
0.000000000000000000e+00
0.000000000000000000e+00
0.000000000000000000e+00
0.000000000000000000e+00
0.000000000000000000e+00
0.000000000000000000e+00
0.000000000000000000e+00
0.000000000000000000e+00
0.000000000000000000e+00
0.000000000000000000e+00
0.000000000000000000e+00
0.000000000000000000e+00
0.000000000000000000e+00
0.000000000000000000e+00
0.000000000000000000e+00
0.000000000000000000e+00
0.000000000000000000e+00
0.000000000000000000e+00
0.000000000000000000e+00
0.000000000000000000e+00
0.000000000000000000e+00
0.000000000000000000e+00
0.000000000000000000e+00
0.000000000000000000e+00
0.000000000000000000e+00
0.000000000000000000e+00
0.000000000000000000e+00
0.000000000000000000e+00
0.000000000000000000e+00
0.000000000000000000e+00
0.000000000000000000e+00
1.710508378677109818e+02
1.647820980876604438e+02
1.600564277342369053e+02
1.568282370026148840e+02
1.553412710053006833e+02
1.539885575282740149e+02
1.521744353733396906e+02
1.502767419345072142e+02
1.492134689830704986e+02
1.491495894878281376e+02
1.497247055160495108e+02
1.506832306410738340e+02
1.517671081044789219e+02
1.526089779283338999e+02
1.534293970598901353e+02
1.543687930593441422e+02
1.553329751079226071e+02
1.562736678491289695e+02
1.571490034533264293e+02
1.579391441272926500e+02
1.588878159211176921e+02
1.601291016793699669e+02
1.615558619087347552e+02
1.638564319161306457e+02
1.681116355303130945e+02
1.735219443008702456e+02
1.782348958251418196e+02
1.797549958587883339e+02
1.778676970793098349e+02
1.742545093279630635e+02
1.692127219981544215e+02
1.629013955619098795e+02
0.000000000000000000e+00
0.000000000000000000e+00
0.000000000000000000e+00
0.000000000000000000e+00
0.000000000000000000e+00
0.000000000000000000e+00
0.000000000000000000e+00
0.000000000000000000e+00
0.000000000000000000e+00
0.000000000000000000e+00
0.000000000000000000e+00
0.000000000000000000e+00
0.000000000000000000e+00
1.777923982550143194e+02
1.734647791970132289e+02
1.705323112564011865e+02
1.691644781025547957e+02
1.689048590761342155e+02
1.692523439107773982e+02
1.693540637815493426e+02
1.692558950035240457e+02
1.692522632049899300e+02
1.694968167795506986e+02
1.697369483676515642e+02
1.698052728455234615e+02
1.698596120483612708e+02
1.699313080818038770e+02
1.701863372342087928e+02
1.709908177413814485e+02
1.720790043884974523e+02
1.730723301599994670e+02
1.746300694363115156e+02
1.776066619161674680e+02
1.816313982762863475e+02
1.871772170740787260e+02
0.000000000000000000e+00
0.000000000000000000e+00
0.000000000000000000e+00
0.000000000000000000e+00
0.000000000000000000e+00
0.000000000000000000e+00
0.000000000000000000e+00
0.000000000000000000e+00
0.000000000000000000e+00
0.000000000000000000e+00
0.000000000000000000e+00
0.000000000000000000e+00
0.000000000000000000e+00
0.000000000000000000e+00
0.000000000000000000e+00
0.000000000000000000e+00
0.000000000000000000e+00
1.857190869264827597e+02
1.770158368999464358e+02
1.719807321714168893e+02
1.692738130168846453e+02
1.679827846408311700e+02
1.673436008322984492e+02
1.669500334601051179e+02
1.659409594585655441e+02
1.646537578049112653e+02
1.633798908626890238e+02
1.642615819315061003e+02
1.641727059445389614e+02
1.640255986363201828e+02
1.643907923409691705e+02
1.649906087492592235e+02
1.655635587287941917e+02
1.660436978560298371e+02
1.668256525442067471e+02
1.688018796770545293e+02
1.727703788282623805e+02
1.738698906134065396e+02
1.743076956991669704e+02
1.753985899691174382e+02
1.762640986696914638e+02
1.768907888353539022e+02
1.773148080414907781e+02
1.775291879663804195e+02
1.774885594096528507e+02
1.771807619763386867e+02
1.768336943870111213e+02
1.764675311624148151e+02
1.760347095006789573e+02
1.754902796016038735e+02
1.747919382260612622e+02
1.738960084765865588e+02
1.725243926997443964e+02
1.709505443057720413e+02
1.698260832728108483e+02
1.689233037690354990e+02
1.676541340745854427e+02
1.662591164870188436e+02
1.647704695123391332e+02
1.630823290452615026e+02
1.610168957817517139e+02
1.584169622372473896e+02
1.553046094495070975e+02
1.519208960191414519e+02
1.479993424001409608e+02
1.439158072307612031e+02
1.418338515479020998e+02
1.414225722489580050e+02
1.421444852285978016e+02
1.435171721844545516e+02
1.447404873127310623e+02
1.454201765551473784e+02
1.451557398412850830e+02
1.442502588536825954e+02
1.429931032610382999e+02
1.414910358859884809e+02
1.409345087232181584e+02
1.413033290825590598e+02
1.430323146806888985e+02
1.480664005940712968e+02
1.535429847051241552e+02
1.484018645437120654e+02
1.380499852399480289e+02
1.313899013274711649e+02
1.278889900680947989e+02
1.343470127339028863e+02
1.383244286411554640e+02
0.000000000000000000e+00
0.000000000000000000e+00
0.000000000000000000e+00
0.000000000000000000e+00
0.000000000000000000e+00
0.000000000000000000e+00
0.000000000000000000e+00
0.000000000000000000e+00
0.000000000000000000e+00
1.274989339897992267e+02
1.236058473782137668e+02
1.216950869683691252e+02
1.204132415387041135e+02
1.196763127858796878e+02
1.197247146347887394e+02
1.196898952914542207e+02
1.196464138781897475e+02
1.209827302332145678e+02
1.226945942088558752e+02
1.229365179693431998e+02
1.224231960096299048e+02
1.226010798227325154e+02
1.227416415213802310e+02
1.215756644284459895e+02
1.187264137604256717e+02
1.153624066223005542e+02
1.140215472749618044e+02
1.146769476425623395e+02
1.150970184837133985e+02
1.154234278273539616e+02
1.163774177156167724e+02
1.180368939669924941e+02
1.198808411080170799e+02
1.204863562148277225e+02
1.203597403105169832e+02
1.198080938763271206e+02
1.198239767774101523e+02
1.204248978569536064e+02
0.000000000000000000e+00
0.000000000000000000e+00
0.000000000000000000e+00
0.000000000000000000e+00
0.000000000000000000e+00
0.000000000000000000e+00
0.000000000000000000e+00
0.000000000000000000e+00
0.000000000000000000e+00
0.000000000000000000e+00
0.000000000000000000e+00
0.000000000000000000e+00
1.431579317580056454e+02
1.412963218738079831e+02
1.358433726291584946e+02
1.308562566824507201e+02
1.250999125791702227e+02
1.203449914711409008e+02
1.185004029436759794e+02
1.180179839311905852e+02
1.178037694552544394e+02
1.176505163506921718e+02
1.173888761666761980e+02
1.164294818645591647e+02
1.136601277595624993e+02
1.123100242319156905e+02
1.133340031649224500e+02
1.149619221469572068e+02
1.154928518414190108e+02
1.162940415015333713e+02
1.173015311128010865e+02
1.187778862825316111e+02
1.206814498913045810e+02
1.224372070342638921e+02
1.237930051066913961e+02
1.249660648500317279e+02
1.263307687447034340e+02
1.276111523886110461e+02
1.286366748743159860e+02
1.297517729353583604e+02
1.313062254628885057e+02
1.335472229112606897e+02
1.368252683983062354e+02
1.409819618945610955e+02
1.419526624613420154e+02
1.397318335488397167e+02
1.378609927120623695e+02
1.365122630487431934e+02
1.352835762860331386e+02
0.000000000000000000e+00
0.000000000000000000e+00
0.000000000000000000e+00
0.000000000000000000e+00
0.000000000000000000e+00
0.000000000000000000e+00
0.000000000000000000e+00
0.000000000000000000e+00
0.000000000000000000e+00
0.000000000000000000e+00
0.000000000000000000e+00
0.000000000000000000e+00
0.000000000000000000e+00
0.000000000000000000e+00
0.000000000000000000e+00
0.000000000000000000e+00
0.000000000000000000e+00
0.000000000000000000e+00
0.000000000000000000e+00
0.000000000000000000e+00
0.000000000000000000e+00
0.000000000000000000e+00
0.000000000000000000e+00
0.000000000000000000e+00
0.000000000000000000e+00
0.000000000000000000e+00
0.000000000000000000e+00
0.000000000000000000e+00
1.377138855653570602e+02
1.339254452187810784e+02
1.300164149553087611e+02
1.238714796496014401e+02
1.186705497127498177e+02
1.157703584739519158e+02
1.143132871468947940e+02
1.131406443821996248e+02
1.121079343499122558e+02
1.112368295217227683e+02
1.101235203272612182e+02
1.089482346690959247e+02
1.078716150686039015e+02
1.064556148326750247e+02
1.045373504327585437e+02
1.026012408960791191e+02
1.005920477198548753e+02
9.727666967482061011e+01
9.283470615646933766e+01
8.889679240632388257e+01
8.686139575446031813e+01
8.783133079282320921e+01
9.501057192207876767e+01
1.040015736979329262e+02
0.000000000000000000e+00
0.000000000000000000e+00
0.000000000000000000e+00
0.000000000000000000e+00
0.000000000000000000e+00
0.000000000000000000e+00
0.000000000000000000e+00
0.000000000000000000e+00
0.000000000000000000e+00
0.000000000000000000e+00
0.000000000000000000e+00
0.000000000000000000e+00
0.000000000000000000e+00
0.000000000000000000e+00
0.000000000000000000e+00
0.000000000000000000e+00
0.000000000000000000e+00
0.000000000000000000e+00
0.000000000000000000e+00
0.000000000000000000e+00
0.000000000000000000e+00
0.000000000000000000e+00
0.000000000000000000e+00
0.000000000000000000e+00
0.000000000000000000e+00
0.000000000000000000e+00
0.000000000000000000e+00
0.000000000000000000e+00
0.000000000000000000e+00
0.000000000000000000e+00
0.000000000000000000e+00
0.000000000000000000e+00
0.000000000000000000e+00
0.000000000000000000e+00
0.000000000000000000e+00
0.000000000000000000e+00
0.000000000000000000e+00
0.000000000000000000e+00
0.000000000000000000e+00
0.000000000000000000e+00
0.000000000000000000e+00
0.000000000000000000e+00
0.000000000000000000e+00
0.000000000000000000e+00
0.000000000000000000e+00
0.000000000000000000e+00
0.000000000000000000e+00
0.000000000000000000e+00
0.000000000000000000e+00
0.000000000000000000e+00
0.000000000000000000e+00
0.000000000000000000e+00
0.000000000000000000e+00
0.000000000000000000e+00
0.000000000000000000e+00
0.000000000000000000e+00
0.000000000000000000e+00
0.000000000000000000e+00
0.000000000000000000e+00
0.000000000000000000e+00
0.000000000000000000e+00
0.000000000000000000e+00
0.000000000000000000e+00
0.000000000000000000e+00
0.000000000000000000e+00
0.000000000000000000e+00
0.000000000000000000e+00
0.000000000000000000e+00
0.000000000000000000e+00
0.000000000000000000e+00
0.000000000000000000e+00
0.000000000000000000e+00
0.000000000000000000e+00
0.000000000000000000e+00
0.000000000000000000e+00
0.000000000000000000e+00
0.000000000000000000e+00
0.000000000000000000e+00
0.000000000000000000e+00
0.000000000000000000e+00
0.000000000000000000e+00
0.000000000000000000e+00
0.000000000000000000e+00
0.000000000000000000e+00
0.000000000000000000e+00
0.000000000000000000e+00
0.000000000000000000e+00
0.000000000000000000e+00
0.000000000000000000e+00
0.000000000000000000e+00
0.000000000000000000e+00
0.000000000000000000e+00
0.000000000000000000e+00
0.000000000000000000e+00
0.000000000000000000e+00
0.000000000000000000e+00
0.000000000000000000e+00
0.000000000000000000e+00
0.000000000000000000e+00
0.000000000000000000e+00
0.000000000000000000e+00
0.000000000000000000e+00
0.000000000000000000e+00
0.000000000000000000e+00
0.000000000000000000e+00
0.000000000000000000e+00
0.000000000000000000e+00
0.000000000000000000e+00
0.000000000000000000e+00
0.000000000000000000e+00
0.000000000000000000e+00
0.000000000000000000e+00
0.000000000000000000e+00
0.000000000000000000e+00
0.000000000000000000e+00
0.000000000000000000e+00
0.000000000000000000e+00
0.000000000000000000e+00
0.000000000000000000e+00
0.000000000000000000e+00
0.000000000000000000e+00
0.000000000000000000e+00
0.000000000000000000e+00
0.000000000000000000e+00
0.000000000000000000e+00
0.000000000000000000e+00
0.000000000000000000e+00
0.000000000000000000e+00
0.000000000000000000e+00
0.000000000000000000e+00
0.000000000000000000e+00
0.000000000000000000e+00
0.000000000000000000e+00
0.000000000000000000e+00
0.000000000000000000e+00
0.000000000000000000e+00
0.000000000000000000e+00
0.000000000000000000e+00
0.000000000000000000e+00
0.000000000000000000e+00
0.000000000000000000e+00
0.000000000000000000e+00
0.000000000000000000e+00
1.298227577708157128e+02
1.282258719151581658e+02
1.273953792913474814e+02
1.264519678863039900e+02
1.257761625686380142e+02
1.253019986190430473e+02
1.247654724827798560e+02
1.239839342595448812e+02
1.228293474496671109e+02
1.206854205891990688e+02
1.180790021900619564e+02
1.169483390084432131e+02
1.160427217393772708e+02
1.143782255930237994e+02
1.141764974005018018e+02
1.232677600305964631e+02
1.295948406707929621e+02
1.296613498353325440e+02
1.328958391024477237e+02
1.354523059500104125e+02
1.372708870366253961e+02
1.316562522243859519e+02
1.237781896880142227e+02
0.000000000000000000e+00
0.000000000000000000e+00
0.000000000000000000e+00
0.000000000000000000e+00
0.000000000000000000e+00
0.000000000000000000e+00
0.000000000000000000e+00
0.000000000000000000e+00
0.000000000000000000e+00
0.000000000000000000e+00
0.000000000000000000e+00
0.000000000000000000e+00
1.781991190383963612e+02
1.663206480055500549e+02
1.616783953360686894e+02
1.627591526328440352e+02
1.637411484248473812e+02
1.639912665032009897e+02
1.651459836541988579e+02
1.660082308837956475e+02
1.665197505170238230e+02
1.665157010232275638e+02
1.628596104599528758e+02
1.470356628011487317e+02
1.409281918005905254e+02
1.421050428743253917e+02
1.401989512743220700e+02
1.409219423579005195e+02
1.439324152948819631e+02
1.524640169448137783e+02
1.587863251053607598e+02
1.589970288067907802e+02
1.590956197601158806e+02
1.586390516271392244e+02
1.574780851160332986e+02
1.558555910650162843e+02
1.538946724310296474e+02
1.516477475416797631e+02
1.487893753129962136e+02
1.447455947083960837e+02
1.416436637102420946e+02
1.381756410003583539e+02
1.346290514933544387e+02
1.308570054500997912e+02
1.270386275124055544e+02
1.229227428766845946e+02
1.186380169194762004e+02
1.150451661714300968e+02
1.126835376281891143e+02
1.116195468691259265e+02
1.118857193442149196e+02
1.130244964657493369e+02
1.143410355050630329e+02
1.158311536044292183e+02
1.179433301499343401e+02
1.207969987903625650e+02
1.234741869586362384e+02
1.255253586644337815e+02
1.279826930728686989e+02
1.302050214626547699e+02
1.316632208326467151e+02
1.317820578157063949e+02
1.311013947272022051e+02
1.311471004385729486e+02
1.294813717920795000e+02
1.260501252804798185e+02
1.232250941174141445e+02
1.202798771591527753e+02
1.176129913440848611e+02
1.162329479955477609e+02
1.164395865614116019e+02
1.179665594590386917e+02
0.000000000000000000e+00
0.000000000000000000e+00
1.247541098728696198e+02
1.276135864013939170e+02
1.304659842319823895e+02
1.320368629313179838e+02
1.326959948208530022e+02
1.327243447715683544e+02
1.325818336987886710e+02
1.330728216059746387e+02
1.338950510090010653e+02
1.347037323032165261e+02
1.355520676110339195e+02
1.363619784165246358e+02
1.369371412487280111e+02
1.373538446678524281e+02
1.378207673883891005e+02
1.384502021687804074e+02
1.392407076990062649e+02
1.400646429882883410e+02
1.409855921149542155e+02
1.419174689065698658e+02
1.426096717644312548e+02
1.429503580168009478e+02
1.432158305052329297e+02
1.437605254119306153e+02
1.445608079720550165e+02
1.454558225795668704e+02
1.464065647511138479e+02
1.475005380296513238e+02
1.486783117429060042e+02
1.498164038699210892e+02
1.510478857266921864e+02
1.525282250102443697e+02
1.541846601968189532e+02
1.557247724624707814e+02
1.577197643279266401e+02
1.625467961700543640e+02
1.698709517793197676e+02
1.743381189512340939e+02
1.742987193605853804e+02
1.702820413624248204e+02
1.640492208142316599e+02
1.577584252806489644e+02
1.527770955403158553e+02
1.486330165193624282e+02
0.000000000000000000e+00
0.000000000000000000e+00
1.488702073786623998e+02
1.547822911147985963e+02
1.630230061235111805e+02
1.704535341152386536e+02
1.734524551814195661e+02
1.736403052965656002e+02
1.712158385844386146e+02
1.670721171083146999e+02
1.632285125432452446e+02
1.605489191285326456e+02
1.591236155604990472e+02
1.584720398091557740e+02
1.579339477363451465e+02
1.565432047968477605e+02
1.526443480674010686e+02
1.423334451603297737e+02
1.357083188081588219e+02
1.325506067240717130e+02
1.337216933809410193e+02
1.369360965052368329e+02
1.418928386099398153e+02
0.000000000000000000e+00
0.000000000000000000e+00
0.000000000000000000e+00
0.000000000000000000e+00
0.000000000000000000e+00
1.402817385696499741e+02
1.364269513263708973e+02
1.333049484387147174e+02
1.305534200137588812e+02
1.284345999130341909e+02
1.266041283872803263e+02
1.245186433081299811e+02
1.227029022486364056e+02
1.222712211230528112e+02
1.249954454156734869e+02
1.258710784155480980e+02
1.249604636600187888e+02
1.239780223858085435e+02
1.232439569764836449e+02
1.226279747174841219e+02
1.220252533383998070e+02
1.214249732583247408e+02
1.212742375551242731e+02
1.228386017945982900e+02
1.229439630236541348e+02
1.217041978214913911e+02
1.207801230234710204e+02
1.202031620961509333e+02
1.192626153613855848e+02
1.187512129166400143e+02
1.188004302301539639e+02
1.189505868140380045e+02
1.189152554649870126e+02
1.185523427815693083e+02
1.180213605010970497e+02
1.176202822618531059e+02
1.172032408207961112e+02
1.164976222636843772e+02
1.155473301853324841e+02
1.143118154181481003e+02
1.131536469981670479e+02
1.130325269987011723e+02
1.133135231491107078e+02
1.130682670941341712e+02
1.121969759778148301e+02
1.114522817473043119e+02
1.108020486913324163e+02
1.102738567831111709e+02
1.100265752321476924e+02
1.100079518188432246e+02
1.102591871933106518e+02
1.109173936399872389e+02
1.117248210177360050e+02
1.123730745020602200e+02
1.127365295386782549e+02
1.128189152994922324e+02
1.122076229207038836e+02
1.107812338402723498e+02
1.072966447954797076e+02
1.059312699773726223e+02
0.000000000000000000e+00
0.000000000000000000e+00
0.000000000000000000e+00
0.000000000000000000e+00
0.000000000000000000e+00
0.000000000000000000e+00
0.000000000000000000e+00
0.000000000000000000e+00
0.000000000000000000e+00
0.000000000000000000e+00
0.000000000000000000e+00
0.000000000000000000e+00
0.000000000000000000e+00
0.000000000000000000e+00
0.000000000000000000e+00
0.000000000000000000e+00
0.000000000000000000e+00
0.000000000000000000e+00
0.000000000000000000e+00
0.000000000000000000e+00
0.000000000000000000e+00
0.000000000000000000e+00
1.198603782716729569e+02
1.155294249630899088e+02
1.144744742528076813e+02
1.133685952359431610e+02
1.127619056823662191e+02
1.124990130316447932e+02
1.122393022121420643e+02
1.116728371580910704e+02
1.096293488108753991e+02
1.084278458144788004e+02
1.098060248688797174e+02
1.127808877604171585e+02
1.114239592804949410e+02
1.103516539854365703e+02
1.095698756035774579e+02
1.093928492272999762e+02
1.106581153183370958e+02
1.129291438352314287e+02
1.130648704906293318e+02
1.095708683008483604e+02
1.081940413733836124e+02
1.081430815303499173e+02
1.076388047305210165e+02
1.073370200185299979e+02
1.073559079413445545e+02
1.073548841205053463e+02
1.069838304601450432e+02
1.062807312867554401e+02
1.055324728889716965e+02
1.035607467168084099e+02
1.020644848998052510e+02
1.017815804692511250e+02
1.018409539320509367e+02
1.021263121551340589e+02
1.029610710258516519e+02
1.037859739029165667e+02
1.035599072328041075e+02
1.019023056435783445e+02
9.945847469364785809e+01
9.927676410986005351e+01
1.004574492493706686e+02
9.809522029335762738e+01
9.668525537295701611e+01
9.755942611843812529e+01
9.748139684743723876e+01
9.835446434750659250e+01
9.808666076018835156e+01
9.763104661233920467e+01
9.977102453015078254e+01
0.000000000000000000e+00
0.000000000000000000e+00
0.000000000000000000e+00
0.000000000000000000e+00
0.000000000000000000e+00
0.000000000000000000e+00
0.000000000000000000e+00
0.000000000000000000e+00
0.000000000000000000e+00
0.000000000000000000e+00
0.000000000000000000e+00
0.000000000000000000e+00
0.000000000000000000e+00
0.000000000000000000e+00
0.000000000000000000e+00
0.000000000000000000e+00
0.000000000000000000e+00
0.000000000000000000e+00
0.000000000000000000e+00
0.000000000000000000e+00
0.000000000000000000e+00
0.000000000000000000e+00
0.000000000000000000e+00
0.000000000000000000e+00
0.000000000000000000e+00
0.000000000000000000e+00
0.000000000000000000e+00
0.000000000000000000e+00
0.000000000000000000e+00
0.000000000000000000e+00
0.000000000000000000e+00
0.000000000000000000e+00
0.000000000000000000e+00
0.000000000000000000e+00
0.000000000000000000e+00
0.000000000000000000e+00
0.000000000000000000e+00
0.000000000000000000e+00
0.000000000000000000e+00
0.000000000000000000e+00
0.000000000000000000e+00
0.000000000000000000e+00
0.000000000000000000e+00
0.000000000000000000e+00
0.000000000000000000e+00
0.000000000000000000e+00
0.000000000000000000e+00
0.000000000000000000e+00
0.000000000000000000e+00
0.000000000000000000e+00
0.000000000000000000e+00
0.000000000000000000e+00
0.000000000000000000e+00
0.000000000000000000e+00
0.000000000000000000e+00
0.000000000000000000e+00
0.000000000000000000e+00
0.000000000000000000e+00
0.000000000000000000e+00
0.000000000000000000e+00
0.000000000000000000e+00
0.000000000000000000e+00
0.000000000000000000e+00
0.000000000000000000e+00
0.000000000000000000e+00
0.000000000000000000e+00
0.000000000000000000e+00
0.000000000000000000e+00
0.000000000000000000e+00
0.000000000000000000e+00
0.000000000000000000e+00
0.000000000000000000e+00
0.000000000000000000e+00
0.000000000000000000e+00
0.000000000000000000e+00
0.000000000000000000e+00
0.000000000000000000e+00
0.000000000000000000e+00
0.000000000000000000e+00
0.000000000000000000e+00
0.000000000000000000e+00
0.000000000000000000e+00
0.000000000000000000e+00
0.000000000000000000e+00
0.000000000000000000e+00
0.000000000000000000e+00
0.000000000000000000e+00
0.000000000000000000e+00
0.000000000000000000e+00
0.000000000000000000e+00
0.000000000000000000e+00
0.000000000000000000e+00
0.000000000000000000e+00
0.000000000000000000e+00
0.000000000000000000e+00
0.000000000000000000e+00
0.000000000000000000e+00
0.000000000000000000e+00
0.000000000000000000e+00
0.000000000000000000e+00
0.000000000000000000e+00
0.000000000000000000e+00
0.000000000000000000e+00
0.000000000000000000e+00
0.000000000000000000e+00
0.000000000000000000e+00
0.000000000000000000e+00
0.000000000000000000e+00
0.000000000000000000e+00
0.000000000000000000e+00
0.000000000000000000e+00
0.000000000000000000e+00
0.000000000000000000e+00
0.000000000000000000e+00
0.000000000000000000e+00
0.000000000000000000e+00
0.000000000000000000e+00
0.000000000000000000e+00
0.000000000000000000e+00
0.000000000000000000e+00
0.000000000000000000e+00
0.000000000000000000e+00
0.000000000000000000e+00
1.516515800880005713e+02
1.403146530708530122e+02
1.446077582627052323e+02
1.452529511514154024e+02
1.425519500986542312e+02
1.402341198731289751e+02
1.421676678009913530e+02
1.439003675680024799e+02
1.445463329841785765e+02
1.481665502990909431e+02
1.450866098731469265e+02
1.369108291998752804e+02
1.227912831108432670e+02
1.207443634063862845e+02
1.232156931474455206e+02
1.255083011042464420e+02
1.275700245938335229e+02
1.295461548573484549e+02
1.315454946217509189e+02
1.332891853120807752e+02
1.343493830357797378e+02
1.351928436380042342e+02
1.367664967459407137e+02
1.387077142827364469e+02
1.400773332881464626e+02
1.409942646864978713e+02
1.421274057521361556e+02
1.433463250233284043e+02
1.444544850691264344e+02
1.454088049538177643e+02
1.461021518885302726e+02
1.467326706099048579e+02
1.474722665769648131e+02
1.480095050574059314e+02
1.484974260548631264e+02
1.491825217137529194e+02
1.498444816457959519e+02
1.504409273140487642e+02
1.512201241875920914e+02
1.521875697391107849e+02
1.531199465574933640e+02
1.539163218496609886e+02
1.545979598989882220e+02
1.551647085335810630e+02
1.557521008318684892e+02
1.564162840821360589e+02
1.570891422045129104e+02
1.575309583375519935e+02
1.576946473089256244e+02
1.579886313716137920e+02
1.584369058133579813e+02
1.588023775433586025e+02
1.591900209588473558e+02
1.594667930959372200e+02
1.597949373685912065e+02
1.604850843765941306e+02
1.610849362048816147e+02
1.610012336603712981e+02
1.603466334266447291e+02
1.592588841486472404e+02
1.577210428460602429e+02
1.551990429023055924e+02
1.524039781491775614e+02
1.506502544740826579e+02
1.497573362677913167e+02
1.493281365185691243e+02
1.491857939950472769e+02
1.496426245746162351e+02
1.502877059372366091e+02
1.509480917180787856e+02
1.521806033044872777e+02
1.537435049828382319e+02
1.551408121533988549e+02
1.555917636965701831e+02
1.551490238070566647e+02
1.543188207902923637e+02
1.532040079089691744e+02
1.518552057592036419e+02
1.503892863858431781e+02
1.485354554052565561e+02
1.463662887159516686e+02
1.443580146423172721e+02
1.421791249123363059e+02
1.397554889632433799e+02
1.367904980996444237e+02
1.332043634022908236e+02
1.310059705688378813e+02
1.303957668824780853e+02
1.293488188819987101e+02
1.278599048557800160e+02
1.266706731167121944e+02
1.258626758949891808e+02
1.243909335945538146e+02
1.226381495416257650e+02
1.216237905406661497e+02
1.211402661590591947e+02
1.206899093615279241e+02
1.202330854685580732e+02
1.195922839151895403e+02
1.185737696491417665e+02
1.175577072481918322e+02
1.168942034225047450e+02
1.162446985174505016e+02
1.149198295415276476e+02
1.119789628423408345e+02
1.108760417340565283e+02
1.122380177426141330e+02
1.124731061033291866e+02
1.133350299649897295e+02
1.147022683099614255e+02
1.181252371978393541e+02
1.231046984487762899e+02
1.269909020096980043e+02
1.377994763806787262e+02
0.000000000000000000e+00
0.000000000000000000e+00
0.000000000000000000e+00
0.000000000000000000e+00
0.000000000000000000e+00
1.396943928820892040e+02
1.315818806053751473e+02
1.269841806957031878e+02
1.253564414623189123e+02
1.234559364126324965e+02
1.207337124273441589e+02
1.178781662735442950e+02
1.151569109071762540e+02
1.125295941018954267e+02
1.101520374846307391e+02
1.079125668467159471e+02
1.059645120655570736e+02
1.050715283212924049e+02
1.057094519420347041e+02
1.067031129963824441e+02
1.070468511386975763e+02
1.072192119262906687e+02
1.079273874001916624e+02
1.091484801001775793e+02
1.098084334365661903e+02
1.097495957321751661e+02
1.093582709059764824e+02
1.093153109705144601e+02
1.097773879064403815e+02
1.105428818647955467e+02
1.100729638557841241e+02
1.088869502434998680e+02
1.108205423214256200e+02
1.176873237976198396e+02
1.236579022334845206e+02
1.286660594895523957e+02
1.268958678371528066e+02
1.269848467559844636e+02
1.346420839393693427e+02
0.000000000000000000e+00
0.000000000000000000e+00
0.000000000000000000e+00
0.000000000000000000e+00
0.000000000000000000e+00
0.000000000000000000e+00
0.000000000000000000e+00
0.000000000000000000e+00
0.000000000000000000e+00
0.000000000000000000e+00
0.000000000000000000e+00
1.147174743342175844e+02
1.136560630293218281e+02
1.123160759509409559e+02
1.111648750085264510e+02
1.105032503336447007e+02
1.101899142207029740e+02
1.101784079821187987e+02
1.101254632509005518e+02
1.099890168762394467e+02
1.099889119825889736e+02
1.101401150492096690e+02
1.102069919037576824e+02
1.099964121307270233e+02
1.094008303924627654e+02
1.083627719954076838e+02
1.082891652662056146e+02
1.099367922159052284e+02
1.110244407916096776e+02
1.108320099221989352e+02
1.103070940400828164e+02
1.096215600608448568e+02
1.089474034632009563e+02
1.085702242885301700e+02
1.087206175869745977e+02
1.091382275096721060e+02
1.096089110554434143e+02
1.100107320155677826e+02
1.102854255778563584e+02
1.104497808373323977e+02
1.104592085538443627e+02
1.102201303840649587e+02
1.095772426765568781e+02
1.078289306445361717e+02
1.058638074820655959e+02
1.053620197757836650e+02
1.069449649558054745e+02
1.161280219703473193e+02
1.178112969065030313e+02
1.145783433164602627e+02
1.121221548746176069e+02
1.115839986668121782e+02
1.112672266563598527e+02
1.109192447891516338e+02
1.106857153260683049e+02
1.104426184174677132e+02
1.101424259050278494e+02
1.097056450791426414e+02
1.093977004543729379e+02
1.092998307628360806e+02
1.092111094611011026e+02
1.086509642199441146e+02
1.076400878927132396e+02
1.056872755428628352e+02
0.000000000000000000e+00
0.000000000000000000e+00
0.000000000000000000e+00
0.000000000000000000e+00
0.000000000000000000e+00
0.000000000000000000e+00
0.000000000000000000e+00
0.000000000000000000e+00
0.000000000000000000e+00
0.000000000000000000e+00
0.000000000000000000e+00
0.000000000000000000e+00
0.000000000000000000e+00
0.000000000000000000e+00
0.000000000000000000e+00
0.000000000000000000e+00
0.000000000000000000e+00
0.000000000000000000e+00
0.000000000000000000e+00
0.000000000000000000e+00
0.000000000000000000e+00
0.000000000000000000e+00
0.000000000000000000e+00
0.000000000000000000e+00
0.000000000000000000e+00
1.366075941107366418e+02
1.260993612030084137e+02
1.232096416524944402e+02
1.142330783122123705e+02
0.000000000000000000e+00
0.000000000000000000e+00
0.000000000000000000e+00
0.000000000000000000e+00
0.000000000000000000e+00
0.000000000000000000e+00
0.000000000000000000e+00
0.000000000000000000e+00
0.000000000000000000e+00
0.000000000000000000e+00
0.000000000000000000e+00
0.000000000000000000e+00
0.000000000000000000e+00
0.000000000000000000e+00
0.000000000000000000e+00
0.000000000000000000e+00
0.000000000000000000e+00
0.000000000000000000e+00
0.000000000000000000e+00
0.000000000000000000e+00
0.000000000000000000e+00
0.000000000000000000e+00
0.000000000000000000e+00
0.000000000000000000e+00
0.000000000000000000e+00
0.000000000000000000e+00
0.000000000000000000e+00
0.000000000000000000e+00
0.000000000000000000e+00
0.000000000000000000e+00
0.000000000000000000e+00
0.000000000000000000e+00
0.000000000000000000e+00
0.000000000000000000e+00
0.000000000000000000e+00
0.000000000000000000e+00
0.000000000000000000e+00
0.000000000000000000e+00
0.000000000000000000e+00
0.000000000000000000e+00
0.000000000000000000e+00
0.000000000000000000e+00
0.000000000000000000e+00
0.000000000000000000e+00
0.000000000000000000e+00
0.000000000000000000e+00
0.000000000000000000e+00
0.000000000000000000e+00
0.000000000000000000e+00
0.000000000000000000e+00
0.000000000000000000e+00
0.000000000000000000e+00
0.000000000000000000e+00
0.000000000000000000e+00
0.000000000000000000e+00
