0.000000000000000000e+00
0.000000000000000000e+00
0.000000000000000000e+00
0.000000000000000000e+00
0.000000000000000000e+00
0.000000000000000000e+00
0.000000000000000000e+00
0.000000000000000000e+00
0.000000000000000000e+00
0.000000000000000000e+00
0.000000000000000000e+00
0.000000000000000000e+00
0.000000000000000000e+00
0.000000000000000000e+00
0.000000000000000000e+00
0.000000000000000000e+00
0.000000000000000000e+00
0.000000000000000000e+00
0.000000000000000000e+00
0.000000000000000000e+00
0.000000000000000000e+00
0.000000000000000000e+00
0.000000000000000000e+00
0.000000000000000000e+00
0.000000000000000000e+00
0.000000000000000000e+00
0.000000000000000000e+00
0.000000000000000000e+00
0.000000000000000000e+00
0.000000000000000000e+00
0.000000000000000000e+00
0.000000000000000000e+00
0.000000000000000000e+00
0.000000000000000000e+00
0.000000000000000000e+00
0.000000000000000000e+00
0.000000000000000000e+00
0.000000000000000000e+00
0.000000000000000000e+00
0.000000000000000000e+00
0.000000000000000000e+00
0.000000000000000000e+00
0.000000000000000000e+00
0.000000000000000000e+00
0.000000000000000000e+00
0.000000000000000000e+00
0.000000000000000000e+00
0.000000000000000000e+00
0.000000000000000000e+00
0.000000000000000000e+00
0.000000000000000000e+00
0.000000000000000000e+00
0.000000000000000000e+00
0.000000000000000000e+00
0.000000000000000000e+00
0.000000000000000000e+00
0.000000000000000000e+00
0.000000000000000000e+00
0.000000000000000000e+00
0.000000000000000000e+00
0.000000000000000000e+00
0.000000000000000000e+00
0.000000000000000000e+00
0.000000000000000000e+00
0.000000000000000000e+00
0.000000000000000000e+00
0.000000000000000000e+00
0.000000000000000000e+00
0.000000000000000000e+00
0.000000000000000000e+00
0.000000000000000000e+00
0.000000000000000000e+00
0.000000000000000000e+00
0.000000000000000000e+00
0.000000000000000000e+00
0.000000000000000000e+00
0.000000000000000000e+00
0.000000000000000000e+00
0.000000000000000000e+00
0.000000000000000000e+00
0.000000000000000000e+00
1.361758162641577883e+02
1.335462677105028888e+02
1.340545697572867425e+02
1.347561556053327365e+02
1.354078762177687452e+02
1.353559738919426252e+02
1.350206385379272263e+02
1.349822074423362324e+02
1.354553416525814953e+02
1.361360177295142364e+02
1.368497368504486644e+02
1.375852381799352315e+02
1.377665606492736288e+02
1.363322663905523484e+02
1.354364826446109475e+02
1.360324532623850189e+02
1.360358911682340022e+02
1.361075880546742667e+02
1.367282858910330958e+02
1.379272060124763470e+02
1.403631022755011486e+02
1.434133948590091165e+02
1.464971390375043825e+02
1.493980051641530054e+02
1.533920164261745924e+02
1.582501087706978069e+02
1.612885378558928551e+02
1.612035764944577636e+02
1.589885376760960014e+02
1.559836187638083516e+02
1.538943055179757380e+02
1.531007452688302521e+02
1.529672789343002250e+02
1.532039348556228333e+02
1.538397186040216127e+02
1.548140309262217329e+02
1.559592987970544584e+02
1.567802346076522326e+02
1.569925432547307480e+02
1.556922520118253601e+02
1.525311342830036381e+02
1.493592564350674081e+02
1.513059563128113894e+02
1.503915094494720393e+02
1.490413129479182999e+02
1.515307930113734471e+02
1.537072205102743681e+02
1.541297498083877144e+02
1.537498831387283929e+02
1.526433290598423014e+02
1.513338081205824892e+02
1.502015919773983228e+02
1.490814009362036359e+02
1.478569974371332023e+02
1.467163690671043526e+02
1.455240875947776544e+02
1.439842420279778139e+02
1.424120601788894191e+02
1.410784634105504267e+02
1.398129449766041716e+02
1.384471653648420215e+02
1.372584509866422025e+02
1.361466641585300863e+02
1.352658376841733059e+02
1.343052510317076553e+02
1.331860718227524387e+02
1.316898430561928706e+02
1.301340758228462846e+02
1.287974828189547907e+02
1.277396708608925024e+02
1.270868557481859966e+02
1.268056210154149568e+02
1.269174712692936708e+02
1.274457483852645936e+02
1.274549251167752715e+02
1.278434444599146076e+02
1.285923959218889649e+02
1.297048835960282247e+02
1.309573790781667242e+02
1.322822572466219242e+02
1.337489869320943683e+02
1.355057959463138957e+02
1.382452354883602652e+02
1.423804188637420793e+02
1.466682446077427926e+02
1.491834464816253956e+02
1.481898670681018189e+02
1.470041157554785229e+02
1.473126557111106933e+02
1.479769728981279968e+02
1.493987175510537213e+02
1.516607641308605992e+02
1.546721380493010827e+02
1.589878553727776307e+02
1.643933791533840747e+02
1.695795182441681845e+02
1.749027418812825658e+02
1.797140293019334081e+02
1.814503034255140790e+02
1.791852179085100545e+02
1.747826869215820409e+02
1.707421545907179166e+02
1.671804185523842818e+02
1.650964587521611406e+02
1.637637144823459323e+02
1.628379454547538785e+02
1.620759959943298156e+02
1.614430438159966741e+02
1.608926388107212233e+02
1.603980222641681905e+02
1.601473516851566785e+02
1.602481077574570918e+02
1.604415474149506338e+02
1.605244997205890627e+02
1.605683654514943441e+02
1.605305468141409904e+02
1.603607790086678904e+02
1.600827605941641423e+02
1.597149514218830859e+02
1.591476700871519085e+02
1.582315468144865633e+02
1.570202438531920279e+02
1.557647269697681907e+02
1.547329228104601384e+02
1.540058873853666341e+02
1.535308314960427936e+02
1.523473046229329100e+02
1.492543861449222504e+02
1.451034222400436988e+02
1.419138146913977039e+02
1.402321806901998968e+02
1.388605179382306574e+02
1.379126718697543197e+02
1.382006804352343465e+02
1.398739595128772066e+02
1.423602562860228318e+02
1.434501222177862871e+02
1.434192076878391617e+02
1.432614559119055571e+02
1.426725871099046969e+02
1.414092206428390739e+02
1.400989762410909520e+02
1.385473490091326312e+02
1.363000910841550422e+02
1.334642732804410343e+02
1.307388156271371997e+02
1.289885649808164203e+02
1.279160080462249596e+02
1.272609567326603894e+02
1.269261257765405162e+02
1.268153563558520744e+02
1.266784651219703903e+02
1.263935535925489404e+02
1.260993010741617013e+02
1.258676573216225876e+02
1.255842699569939356e+02
1.251485983163782123e+02
1.245423956196622584e+02
1.238125452823697970e+02
1.231181416875914181e+02
1.224578762225885953e+02
1.215271517182528811e+02
1.198056944844111342e+02
1.165691931485832811e+02
1.151466429903656632e+02
1.164625197034958433e+02
1.176937213880530919e+02
1.171045861696280355e+02
1.161901129926224172e+02
1.155870621397222635e+02
1.155217127993376494e+02
1.164995109924294923e+02
1.172158160389354862e+02
1.159818155652647391e+02
1.130701002241334976e+02
1.122338968354456057e+02
1.124638282613742319e+02
1.123679841698930346e+02
1.120044355025366372e+02
1.112726385354809366e+02
1.104624742075333188e+02
1.098462444001567349e+02
1.096243304924107775e+02
1.098972731720979539e+02
1.103564951103797256e+02
1.107617960897408977e+02
1.112184255211248711e+02
1.115905965790766317e+02
1.115769755114610575e+02
1.112703039671068410e+02
1.109340550947172801e+02
1.106926823815053353e+02
1.103160887539225428e+02
1.095325253745092198e+02
1.088921425016839208e+02
1.087456601713206510e+02
1.090196901205485034e+02
1.095732717104343408e+02
1.101760438353303471e+02
1.104891297649434847e+02
1.102725948061924441e+02
1.096665228839234061e+02
1.087573279408190672e+02
1.069008630884549405e+02
1.047142085240812577e+02
1.051146248849235008e+02
1.087007639023396877e+02
1.093148418411010283e+02
1.091133546688313629e+02
1.092524134704481895e+02
1.094858424402580965e+02
1.095171188505806015e+02
1.094840152133766651e+02
1.094218554641144294e+02
1.103870727728762517e+02
1.117570567677251603e+02
1.114417596153470100e+02
1.093649458088282529e+02
1.072745446440576558e+02
1.070323556479953027e+02
1.078244060574707106e+02
1.086643835321819154e+02
1.091835647762001287e+02
1.092889907105105465e+02
1.093259451105780755e+02
1.093541514426844827e+02
1.090686186424445765e+02
1.085013398580785804e+02
1.081100323653566448e+02
1.076865486650036132e+02
1.059929630452120222e+02
1.031545913906348062e+02
9.793206304769329051e+01
0.000000000000000000e+00
0.000000000000000000e+00
0.000000000000000000e+00
0.000000000000000000e+00
0.000000000000000000e+00
0.000000000000000000e+00
0.000000000000000000e+00
0.000000000000000000e+00
0.000000000000000000e+00
0.000000000000000000e+00
0.000000000000000000e+00
0.000000000000000000e+00
0.000000000000000000e+00
0.000000000000000000e+00
0.000000000000000000e+00
0.000000000000000000e+00
0.000000000000000000e+00
0.000000000000000000e+00
0.000000000000000000e+00
0.000000000000000000e+00
0.000000000000000000e+00
0.000000000000000000e+00
0.000000000000000000e+00
0.000000000000000000e+00
0.000000000000000000e+00
0.000000000000000000e+00
0.000000000000000000e+00
0.000000000000000000e+00
0.000000000000000000e+00
0.000000000000000000e+00
0.000000000000000000e+00
0.000000000000000000e+00
0.000000000000000000e+00
0.000000000000000000e+00
0.000000000000000000e+00
0.000000000000000000e+00
0.000000000000000000e+00
0.000000000000000000e+00
0.000000000000000000e+00
0.000000000000000000e+00
0.000000000000000000e+00
0.000000000000000000e+00
0.000000000000000000e+00
0.000000000000000000e+00
0.000000000000000000e+00
0.000000000000000000e+00
0.000000000000000000e+00
0.000000000000000000e+00
0.000000000000000000e+00
0.000000000000000000e+00
0.000000000000000000e+00
0.000000000000000000e+00
0.000000000000000000e+00
0.000000000000000000e+00
0.000000000000000000e+00
0.000000000000000000e+00
0.000000000000000000e+00
0.000000000000000000e+00
0.000000000000000000e+00
0.000000000000000000e+00
0.000000000000000000e+00
0.000000000000000000e+00
0.000000000000000000e+00
0.000000000000000000e+00
0.000000000000000000e+00
0.000000000000000000e+00
0.000000000000000000e+00
0.000000000000000000e+00
0.000000000000000000e+00
0.000000000000000000e+00
0.000000000000000000e+00
0.000000000000000000e+00
0.000000000000000000e+00
0.000000000000000000e+00
0.000000000000000000e+00
0.000000000000000000e+00
0.000000000000000000e+00
0.000000000000000000e+00
0.000000000000000000e+00
0.000000000000000000e+00
0.000000000000000000e+00
0.000000000000000000e+00
0.000000000000000000e+00
0.000000000000000000e+00
0.000000000000000000e+00
0.000000000000000000e+00
0.000000000000000000e+00
0.000000000000000000e+00
0.000000000000000000e+00
0.000000000000000000e+00
0.000000000000000000e+00
0.000000000000000000e+00
0.000000000000000000e+00
0.000000000000000000e+00
0.000000000000000000e+00
0.000000000000000000e+00
0.000000000000000000e+00
0.000000000000000000e+00
0.000000000000000000e+00
0.000000000000000000e+00
0.000000000000000000e+00
0.000000000000000000e+00
0.000000000000000000e+00
0.000000000000000000e+00
0.000000000000000000e+00
0.000000000000000000e+00
0.000000000000000000e+00
0.000000000000000000e+00
0.000000000000000000e+00
0.000000000000000000e+00
0.000000000000000000e+00
0.000000000000000000e+00
0.000000000000000000e+00
0.000000000000000000e+00
0.000000000000000000e+00
0.000000000000000000e+00
0.000000000000000000e+00
0.000000000000000000e+00
0.000000000000000000e+00
0.000000000000000000e+00
0.000000000000000000e+00
0.000000000000000000e+00
0.000000000000000000e+00
0.000000000000000000e+00
0.000000000000000000e+00
0.000000000000000000e+00
0.000000000000000000e+00
0.000000000000000000e+00
0.000000000000000000e+00
0.000000000000000000e+00
0.000000000000000000e+00
0.000000000000000000e+00
0.000000000000000000e+00
0.000000000000000000e+00
0.000000000000000000e+00
0.000000000000000000e+00
0.000000000000000000e+00
1.499474785190794819e+02
1.477116902336312876e+02
1.462779575876955391e+02
1.407216367399009300e+02
1.408184972434097801e+02
1.477586070084548169e+02
1.476724634697521026e+02
1.429016290336940074e+02
1.359725957374716359e+02
1.280049698312353144e+02
1.244676505275841265e+02
1.237765961031867477e+02
1.234791916118935120e+02
1.230803399877258499e+02
1.227924541453569987e+02
1.226124801990928859e+02
1.224514532198132883e+02
1.219784806200418359e+02
1.211898957534263275e+02
1.213930166977888518e+02
1.231394542837013688e+02
1.254362061576400293e+02
1.272314076630403150e+02
1.282985302111654278e+02
1.290790112912382028e+02
1.296606697362707337e+02
1.300533702143738708e+02
1.307631309268537052e+02
1.318634589095017589e+02
1.329464177248815133e+02
1.340122599390701055e+02
1.350565045523641743e+02
1.360508113889727611e+02
1.369987298989879321e+02
1.378831479433476659e+02
1.385741077251504976e+02
1.387589830243359472e+02
1.390642085758996416e+02
1.403567440369482995e+02
1.422206222964211406e+02
1.430113096614678057e+02
1.436523936301499589e+02
1.441860977637174130e+02
1.447666473630620487e+02
1.455023697409985743e+02
1.463644043201825866e+02
1.473215769880475534e+02
1.484204057449970549e+02
1.492846364758900393e+02
1.492682649474413381e+02
1.489091132535770328e+02
1.487677376540914338e+02
1.488404668610243107e+02
1.487126999608400126e+02
1.484349855681480221e+02
1.486906480444648082e+02
1.497997597339576714e+02
1.514363122677604849e+02
1.519048872849037650e+02
1.505959565183207758e+02
1.466956624227655368e+02
1.407846589736872431e+02
1.373460509343586580e+02
1.375250252774319506e+02
1.392629518486315590e+02
1.425796862158382510e+02
0.000000000000000000e+00
0.000000000000000000e+00
0.000000000000000000e+00
0.000000000000000000e+00
0.000000000000000000e+00
0.000000000000000000e+00
1.656220686859554121e+02
1.568481301514069628e+02
1.534062799768746572e+02
1.513377048962339302e+02
1.488893040651373383e+02
1.463129766631589916e+02
1.434038896818601643e+02
1.377766776218809071e+02
1.293799701857305990e+02
1.283860438789221234e+02
1.310067201931591399e+02
1.327751113734248634e+02
1.345886781797617573e+02
1.372814912954649174e+02
1.411994693490835004e+02
1.473021897048439826e+02
1.558680769449615013e+02
1.650075244517395561e+02
1.603090963376318427e+02
1.557998627277633545e+02
1.543353046989560937e+02
1.534384692719696659e+02
1.532431695162837002e+02
1.530533729226387436e+02
1.526330665772543398e+02
1.522621886378230727e+02
1.521937382026202386e+02
1.515042775583649473e+02
1.501217550070691402e+02
1.482823930690592533e+02
1.468990078122877208e+02
1.459093714437563847e+02
1.453759432513607237e+02
1.454676140434662273e+02
1.463207908277858564e+02
1.476652812411977038e+02
1.497962597003521807e+02
1.545938317432010081e+02
1.564051712975520161e+02
1.562592867121899758e+02
1.559804205088205720e+02
1.560545178543558507e+02
1.562649495926003169e+02
1.562839515461287760e+02
1.560691034041209946e+02
1.556786667118351204e+02
1.550881495379559567e+02
1.542990277087388051e+02
1.533548642753923730e+02
1.523892264715476870e+02
1.513312103258914476e+02
1.501334951816024841e+02
1.491839444359311244e+02
1.487841252312096003e+02
1.488650964134412504e+02
1.487797976003818121e+02
1.471595328603614803e+02
1.444938905270561520e+02
1.428245144548328369e+02
1.420185384621140372e+02
1.408462990492127176e+02
1.382344249547676611e+02
1.355503870786209575e+02
1.334020471621952311e+02
1.325543358747513878e+02
1.312687890115507514e+02
1.283352419665022524e+02
1.255093185077378024e+02
1.239217554617948736e+02
1.230058858205929653e+02
1.218938815369269832e+02
1.206905424069555863e+02
1.193662185048791002e+02
1.181787031448852758e+02
1.172202875527516284e+02
1.164760707040898353e+02
1.159890053652199526e+02
1.157811788868952050e+02
1.155866212109133926e+02
1.153157133637305094e+02
1.151319839686745752e+02
1.149467385315312953e+02
1.147007915732688161e+02
1.145732623544403594e+02
1.143150859522060188e+02
1.139188348123013981e+02
1.139602347320693525e+02
1.143205915625348155e+02
1.142201695150251766e+02
1.136186201533027429e+02
1.130786192770357843e+02
1.126390028534977858e+02
1.117719256437057282e+02
1.096173261403231010e+02
1.061219725624082457e+02
1.064412501579397343e+02
1.093765235595479055e+02
1.108968215189751589e+02
1.114290068478097027e+02
1.118056144283661126e+02
1.118552065800387254e+02
1.125372674992449049e+02
1.126782183156561530e+02
1.124991203191153062e+02
1.125244966796245052e+02
1.126539890692450854e+02
1.123722171668106427e+02
1.111669423219294970e+02
1.094765500032216892e+02
1.100303527596740309e+02
1.119368415350703287e+02
1.131994108222523607e+02
1.136199204226618065e+02
1.137276777505338430e+02
1.135517846851339243e+02
1.132158212279889966e+02
1.128014328726082454e+02
1.125080255358550545e+02
1.130384559461780896e+02
1.143409264610061626e+02
1.145885605565544125e+02
1.134408943056448607e+02
1.114727442924093452e+02
1.108670542295043617e+02
1.110934967735444445e+02
1.113546978822795381e+02
1.119098900792581190e+02
1.127443783289746619e+02
1.134152031192606103e+02
1.138827172512345527e+02
1.142017620241296498e+02
1.140395994477546679e+02
1.134876942577523948e+02
1.130926393688490208e+02
1.131303944104900836e+02
1.140050200808540808e+02
1.149331462379454365e+02
1.150021108491757644e+02
1.157604222508014544e+02
0.000000000000000000e+00
0.000000000000000000e+00
0.000000000000000000e+00
0.000000000000000000e+00
0.000000000000000000e+00
0.000000000000000000e+00
0.000000000000000000e+00
0.000000000000000000e+00
0.000000000000000000e+00
0.000000000000000000e+00
0.000000000000000000e+00
0.000000000000000000e+00
0.000000000000000000e+00
0.000000000000000000e+00
0.000000000000000000e+00
1.312257315153600246e+02
1.247073615412665077e+02
1.205901598878982526e+02
1.177279038814492793e+02
1.163187208473454319e+02
1.153132389835102884e+02
1.143462152175528672e+02
1.133050944552606722e+02
1.124806683787841877e+02
1.117851973864237465e+02
1.108576974253672205e+02
1.099259414082805790e+02
1.095036986621464052e+02
1.095129934035777097e+02
1.096239123095746351e+02
1.096683008628222211e+02
1.095768769236602793e+02
1.092428282986390542e+02
1.086064695593264844e+02
1.075796419081019337e+02
1.063802599559529938e+02
1.060089858746682694e+02
1.060613170264034437e+02
1.055502883113367574e+02
1.049132751669765184e+02
1.058665334262051800e+02
1.073573924989046873e+02
1.077935102600225719e+02
1.079079358411333942e+02
1.091373428134995152e+02
1.111470129017109940e+02
1.160203138430686636e+02
0.000000000000000000e+00
0.000000000000000000e+00
0.000000000000000000e+00
0.000000000000000000e+00
0.000000000000000000e+00
0.000000000000000000e+00
0.000000000000000000e+00
0.000000000000000000e+00
0.000000000000000000e+00
0.000000000000000000e+00
0.000000000000000000e+00
0.000000000000000000e+00
0.000000000000000000e+00
0.000000000000000000e+00
0.000000000000000000e+00
0.000000000000000000e+00
0.000000000000000000e+00
0.000000000000000000e+00
0.000000000000000000e+00
0.000000000000000000e+00
0.000000000000000000e+00
0.000000000000000000e+00
0.000000000000000000e+00
0.000000000000000000e+00
0.000000000000000000e+00
0.000000000000000000e+00
0.000000000000000000e+00
0.000000000000000000e+00
0.000000000000000000e+00
0.000000000000000000e+00
0.000000000000000000e+00
0.000000000000000000e+00
0.000000000000000000e+00
0.000000000000000000e+00
0.000000000000000000e+00
0.000000000000000000e+00
0.000000000000000000e+00
0.000000000000000000e+00
0.000000000000000000e+00
0.000000000000000000e+00
0.000000000000000000e+00
0.000000000000000000e+00
0.000000000000000000e+00
0.000000000000000000e+00
0.000000000000000000e+00
0.000000000000000000e+00
0.000000000000000000e+00
0.000000000000000000e+00
0.000000000000000000e+00
0.000000000000000000e+00
0.000000000000000000e+00
0.000000000000000000e+00
0.000000000000000000e+00
0.000000000000000000e+00
0.000000000000000000e+00
0.000000000000000000e+00
0.000000000000000000e+00
0.000000000000000000e+00
0.000000000000000000e+00
0.000000000000000000e+00
0.000000000000000000e+00
0.000000000000000000e+00
0.000000000000000000e+00
0.000000000000000000e+00
0.000000000000000000e+00
0.000000000000000000e+00
0.000000000000000000e+00
0.000000000000000000e+00
0.000000000000000000e+00
0.000000000000000000e+00
0.000000000000000000e+00
0.000000000000000000e+00
0.000000000000000000e+00
0.000000000000000000e+00
0.000000000000000000e+00
0.000000000000000000e+00
0.000000000000000000e+00
0.000000000000000000e+00
0.000000000000000000e+00
0.000000000000000000e+00
0.000000000000000000e+00
0.000000000000000000e+00
0.000000000000000000e+00
0.000000000000000000e+00
